timestamp,EMG
2024-05-29_12-11-04.217568,.34
2024-05-29_12-11-04.217750,56.09
2024-05-29_12-11-04.217868,41.85
2024-05-29_12-11-05.870302,87.28
2024-05-29_12-11-05.902926,53.38
2024-05-29_12-11-05.935673,39.70
2024-05-29_12-11-05.968417,50.75
2024-05-29_12-11-06.001183,52.25
2024-05-29_12-11-06.034018,43.36
2024-05-29_12-11-06.062643,54.24
2024-05-29_12-11-06.095399,38.40
2024-05-29_12-11-06.128142,59.26
2024-05-29_12-11-06.160910,69.61
2024-05-29_12-11-06.193691,88.74
2024-05-29_12-11-06.226462,62.58
2024-05-29_12-11-06.259263,62.54
2024-05-29_12-11-06.291943,43.66
2024-05-29_12-11-06.321240,49.57
2024-05-29_12-11-06.353476,42.13
2024-05-29_12-11-06.386204,53.33
2024-05-29_12-11-06.418917,48.37
2024-05-29_12-11-06.451708,44.01
2024-05-29_12-11-06.484469,41.10
2024-05-29_12-11-06.517317,70.02
2024-05-29_12-11-06.545910,66.93
2024-05-29_12-11-06.578701,86.54
2024-05-29_12-11-06.611474,71.30
2024-05-29_12-11-06.644258,50.71
2024-05-29_12-11-06.677003,40.57
2024-05-29_12-11-06.709780,51.89
2024-05-29_12-11-06.742515,49.41
2024-05-29_12-11-06.771222,46.33
2024-05-29_12-11-06.803959,53.50
2024-05-29_12-11-06.836761,41.54
2024-05-29_12-11-06.869530,52.98
2024-05-29_12-11-06.902304,57.04
2024-05-29_12-11-06.935084,66.36
2024-05-29_12-11-06.967811,70.49
2024-05-29_12-11-06.996448,76.52
2024-05-29_12-11-07.029301,38.50
2024-05-29_12-11-07.062010,51.91
2024-05-29_12-11-07.094766,41.71
2024-05-29_12-11-07.127545,52.95
2024-05-29_12-11-07.160307,52.16
2024-05-29_12-11-07.193079,43.38
2024-05-29_12-11-07.225745,50.35
2024-05-29_12-11-07.254668,43.17
2024-05-29_12-11-07.287383,51.83
2024-05-29_12-11-07.320127,79.01
2024-05-29_12-11-07.352818,75.77
2024-05-29_12-11-07.385549,58.07
2024-05-29_12-11-07.418351,39.11
2024-05-29_12-11-07.451094,52.23
2024-05-29_12-11-07.479781,51.21
2024-05-29_12-11-07.512546,43.72
2024-05-29_12-11-07.545322,54.25
2024-05-29_12-11-07.578074,44.73
2024-05-29_12-11-07.610854,51.54
2024-05-29_12-11-07.643658,43.82
2024-05-29_12-11-07.676387,81.95
2024-05-29_12-11-07.705044,70.57
2024-05-29_12-11-07.737861,63.41
2024-05-29_12-11-07.770612,47.61
2024-05-29_12-11-07.803422,49.65
2024-05-29_12-11-07.836206,41.58
2024-05-29_12-11-07.868964,56.25
2024-05-29_12-11-07.901777,48.77
2024-05-29_12-11-07.930362,43.45
2024-05-29_12-11-07.963131,51.11
2024-05-29_12-11-07.996027,40.78
2024-05-29_12-11-08.028847,61.48
2024-05-29_12-11-08.061447,68.94
2024-05-29_12-11-08.094215,85.00
2024-05-29_12-11-08.126947,45.49
2024-05-29_12-11-08.159695,39.31
2024-05-29_12-11-08.188391,50.66
2024-05-29_12-11-08.221140,49.01
2024-05-29_12-11-08.253898,44.26
2024-05-29_12-11-08.286999,53.09
2024-05-29_12-11-08.319759,43.65
2024-05-29_12-11-08.353108,51.63
2024-05-29_12-11-08.385306,39.19
2024-05-29_12-11-08.414162,69.20
2024-05-29_12-11-08.446994,69.88
2024-05-29_12-11-08.479407,52.19
2024-05-29_12-11-08.511987,42.67
2024-05-29_12-11-08.544710,51.63
2024-05-29_12-11-08.577470,41.93
2024-05-29_12-11-08.610231,54.00
2024-05-29_12-11-08.638892,51.24
2024-05-29_12-11-08.671685,44.13
2024-05-29_12-11-08.704438,47.04
2024-05-29_12-11-08.737241,76.98
2024-05-29_12-11-08.769995,44.16
2024-05-29_12-11-08.802713,86.09
2024-05-29_12-11-08.835479,66.80
2024-05-29_12-11-08.868227,44.19
2024-05-29_12-11-08.896912,41.10
2024-05-29_12-11-08.929741,53.20
2024-05-29_12-11-08.962507,49.12
2024-05-29_12-11-08.995266,43.38
2024-05-29_12-11-09.027983,55.55
2024-05-29_12-11-09.060770,40.62
2024-05-29_12-11-09.093700,51.44
2024-05-29_12-11-09.122279,40.64
2024-05-29_12-11-09.155100,86.52
2024-05-29_12-11-09.187781,74.25
2024-05-29_12-11-09.220515,32.78
2024-05-29_12-11-09.253280,42.98
2024-05-29_12-11-09.287603,49.91
2024-05-29_12-11-09.318797,43.06
2024-05-29_12-11-09.347485,55.73
2024-05-29_12-11-09.380209,49.04
2024-05-29_12-11-09.413034,44.69
2024-05-29_12-11-09.445797,53.32
2024-05-29_12-11-09.478557,42.29
2024-05-29_12-11-09.511322,62.43
2024-05-29_12-11-09.544090,78.91
2024-05-29_12-11-09.572801,51.88
2024-05-29_12-11-09.605550,49.70
2024-05-29_12-11-09.638362,43.55
2024-05-29_12-11-09.671080,51.00
2024-05-29_12-11-09.703807,48.95
2024-05-29_12-11-09.736710,45.89
2024-05-29_12-11-09.769451,53.44
2024-05-29_12-11-09.802122,41.20
2024-05-29_12-11-09.830819,51.67
2024-05-29_12-11-09.863563,77.72
2024-05-29_12-11-09.896289,73.77
2024-05-29_12-11-09.929110,48.14
2024-05-29_12-11-09.961880,46.01
2024-05-29_12-11-09.994643,42.70
2024-05-29_12-11-10.027384,50.40
2024-05-29_12-11-10.056085,40.91
2024-05-29_12-11-10.088846,55.42
2024-05-29_12-11-10.121622,49.18
2024-05-29_12-11-10.154374,43.38
2024-05-29_12-11-10.187191,53.98
2024-05-29_12-11-10.220171,37.36
2024-05-29_12-11-10.252882,86.21
2024-05-29_12-11-10.282387,82.15
2024-05-29_12-11-10.314137,33.82
2024-05-29_12-11-10.346879,52.35
2024-05-29_12-11-10.379661,43.38
2024-05-29_12-11-10.412441,51.78
2024-05-29_12-11-10.445192,48.57
2024-05-29_12-11-10.478089,45.18
2024-05-29_12-11-10.510720,54.84
2024-05-29_12-11-10.539399,41.35
2024-05-29_12-11-10.572151,46.92
2024-05-29_12-11-10.604935,79.26
2024-05-29_12-11-10.637688,82.36
2024-05-29_12-11-10.670461,59.47
2024-05-29_12-11-10.703207,49.97
2024-05-29_12-11-10.735976,43.82
2024-05-29_12-11-10.764640,51.40
2024-05-29_12-11-10.797463,44.77
2024-05-29_12-11-10.830193,54.01
2024-05-29_12-11-10.863436,49.48
2024-05-29_12-11-10.895867,47.35
2024-05-29_12-11-10.928553,50.62
2024-05-29_12-11-10.961219,66.88
2024-05-29_12-11-10.989967,83.83
2024-05-29_12-11-11.022717,52.33
2024-05-29_12-11-11.055542,38.42
2024-05-29_12-11-11.088290,55.55
2024-05-29_12-11-11.121011,40.71
2024-05-29_12-11-11.153772,51.18
2024-05-29_12-11-11.186534,52.76
2024-05-29_12-11-11.215206,43.47
2024-05-29_12-11-11.247962,53.70
2024-05-29_12-11-11.280887,44.02
2024-05-29_12-11-11.313765,63.95
2024-05-29_12-11-11.346342,89.22
2024-05-29_12-11-11.379010,75.17
2024-05-29_12-11-11.411808,33.42
2024-05-29_12-11-11.444622,49.66
2024-05-29_12-11-11.473242,44.51
2024-05-29_12-11-11.506023,52.72
2024-05-29_12-11-11.538777,42.16
2024-05-29_12-11-11.571600,53.37
2024-05-29_12-11-11.604394,49.46
2024-05-29_12-11-11.637078,44.16
2024-05-29_12-11-11.669837,55.79
2024-05-29_12-11-11.698520,69.89
2024-05-29_12-11-11.731285,82.33
2024-05-29_12-11-11.764071,58.11
2024-05-29_12-11-11.796872,44.11
2024-05-29_12-11-11.829615,53.14
2024-05-29_12-11-11.862367,41.20
2024-05-29_12-11-11.895104,51.86
2024-05-29_12-11-11.923773,48.49
2024-05-29_12-11-11.956546,46.34
2024-05-29_12-11-11.989387,53.77
2024-05-29_12-11-12.022113,41.11
2024-05-29_12-11-12.054855,57.33
2024-05-29_12-11-12.090028,80.47
2024-05-29_12-11-12.120450,73.53
2024-05-29_12-11-12.153098,40.15
2024-05-29_12-11-12.181811,49.06
2024-05-29_12-11-12.214969,42.94
2024-05-29_12-11-12.247532,53.42
2024-05-29_12-11-12.280200,42.30
2024-05-29_12-11-12.313184,53.53
2024-05-29_12-11-12.345774,52.07
2024-05-29_12-11-12.378385,43.86
2024-05-29_12-11-12.407128,45.60
2024-05-29_12-11-12.439866,86.69
2024-05-29_12-11-12.472654,73.17
2024-05-29_12-11-12.505395,54.77
2024-05-29_12-11-12.538164,44.08
2024-05-29_12-11-12.570945,54.66
2024-05-29_12-11-12.603675,41.38
2024-05-29_12-11-12.632359,52.38
2024-05-29_12-11-12.665150,50.27
2024-05-29_12-11-12.697912,50.80
2024-05-29_12-11-12.730661,55.84
2024-05-29_12-11-12.763435,41.82
2024-05-29_12-11-12.796228,78.95
2024-05-29_12-11-12.828998,81.29
2024-05-29_12-11-12.857643,28.45
2024-05-29_12-11-12.890397,49.25
2024-05-29_12-11-12.923200,48.91
2024-05-29_12-11-12.955970,46.46
2024-05-29_12-11-12.988714,50.24
2024-05-29_12-11-13.021544,42.10
2024-05-29_12-11-13.054236,56.85
2024-05-29_12-11-13.087012,48.79
2024-05-29_12-11-13.115693,43.65
2024-05-29_12-11-13.148466,76.80
2024-05-29_12-11-13.181232,85.91
2024-05-29_12-11-13.213981,32.56
2024-05-29_12-11-13.246787,47.86
2024-05-29_12-11-13.279549,41.73
2024-05-29_12-11-13.312367,53.02
2024-05-29_12-11-13.340997,43.66
2024-05-29_12-11-13.373750,51.31
2024-05-29_12-11-13.406491,48.40
2024-05-29_12-11-13.439295,44.56
2024-05-29_12-11-13.472082,52.86
2024-05-29_12-11-13.504787,81.33
2024-05-29_12-11-13.537546,74.23
2024-05-29_12-11-13.566226,65.55
2024-05-29_12-11-13.599051,33.30
2024-05-29_12-11-13.631777,53.03
2024-05-29_12-11-13.664550,49.27
2024-05-29_12-11-13.697297,44.06
2024-05-29_12-11-13.730114,50.01
2024-05-29_12-11-13.762851,43.03
2024-05-29_12-11-13.795570,53.14
2024-05-29_12-11-13.824423,50.51
2024-05-29_12-11-13.857030,70.66
2024-05-29_12-11-13.889801,78.16
2024-05-29_12-11-13.922581,87.48
2024-05-29_12-11-13.955380,33.20
2024-05-29_12-11-13.988071,49.40
2024-05-29_12-11-14.020838,45.36
2024-05-29_12-11-14.049557,53.62
2024-05-29_12-11-14.082304,41.25
2024-05-29_12-11-14.115118,54.14
2024-05-29_12-11-14.147875,48.95
2024-05-29_12-11-14.180620,43.56
2024-05-29_12-11-14.213378,51.27
2024-05-29_12-11-14.246158,66.26
2024-05-29_12-11-14.274816,72.23
2024-05-29_12-11-14.307653,50.04
2024-05-29_12-11-14.340446,42.12
2024-05-29_12-11-14.373136,52.90
2024-05-29_12-11-14.405905,51.72
2024-05-29_12-11-14.438619,43.84
2024-05-29_12-11-14.471387,49.82
2024-05-29_12-11-14.500106,43.28
2024-05-29_12-11-14.532921,54.99
2024-05-29_12-11-14.565678,45.56
2024-05-29_12-11-14.598380,56.88
2024-05-29_12-11-14.631148,71.82
2024-05-29_12-11-14.663924,50.01
2024-05-29_12-11-14.696719,52.86
2024-05-29_12-11-14.729395,50.52
2024-05-29_12-11-14.758071,43.99
2024-05-29_12-11-14.790875,53.69
2024-05-29_12-11-14.823634,43.80
2024-05-29_12-11-14.856419,51.51
2024-05-29_12-11-14.889194,49.65
2024-05-29_12-11-14.921977,47.06
2024-05-29_12-11-14.954715,79.65
2024-05-29_12-11-14.983397,81.76
2024-05-29_12-11-15.016547,30.21
2024-05-29_12-11-15.049038,46.06
2024-05-29_12-11-15.081751,41.18
2024-05-29_12-11-15.114490,57.16
2024-05-29_12-11-15.147246,48.38
2024-05-29_12-11-15.179977,43.90
2024-05-29_12-11-15.208654,54.06
2024-05-29_12-11-15.241414,41.22
2024-05-29_12-11-15.274224,53.82
2024-05-29_12-11-15.306964,77.61
2024-05-29_12-11-15.339794,78.29
2024-05-29_12-11-15.372577,46.41
2024-05-29_12-11-15.405259,35.70
2024-05-29_12-11-15.433931,53.69
2024-05-29_12-11-15.466780,48.94
2024-05-29_12-11-15.499472,44.31
2024-05-29_12-11-15.532224,53.67
2024-05-29_12-11-15.565018,41.79
2024-05-29_12-11-15.597820,50.93
2024-05-29_12-11-15.630535,48.23
2024-05-29_12-11-15.663266,65.77
2024-05-29_12-11-15.691982,75.74
2024-05-29_12-11-15.724732,46.34
2024-05-29_12-11-15.757495,33.45
2024-05-29_12-11-15.790274,50.58
2024-05-29_12-11-15.823076,42.03
2024-05-29_12-11-15.855837,53.52
2024-05-29_12-11-15.888577,51.27
2024-05-29_12-11-15.917238,44.26
2024-05-29_12-11-15.950021,51.13
2024-05-29_12-11-15.982855,44.32
2024-05-29_12-11-16.015702,50.03
2024-05-29_12-11-16.048389,93.50
2024-05-29_12-11-16.081064,70.50
2024-05-29_12-11-16.113835,34.28
2024-05-29_12-11-16.142537,42.76
2024-05-29_12-11-16.175287,54.15
2024-05-29_12-11-16.208026,48.89
2024-05-29_12-11-16.240829,43.79
2024-05-29_12-11-16.273580,56.29
2024-05-29_12-11-16.306428,41.90
2024-05-29_12-11-16.339274,51.29
2024-05-29_12-11-16.371809,45.41
2024-05-29_12-11-16.400575,82.04
2024-05-29_12-11-16.433351,68.05
2024-05-29_12-11-16.466085,33.03
2024-05-29_12-11-16.498817,43.11
2024-05-29_12-11-16.531638,49.93
2024-05-29_12-11-16.564430,43.66
2024-05-29_12-11-16.597151,55.68
2024-05-29_12-11-16.625847,48.84
2024-05-29_12-11-16.658612,45.22
2024-05-29_12-11-16.691409,49.02
2024-05-29_12-11-16.724121,79.17
2024-05-29_12-11-16.756896,78.96
2024-05-29_12-11-16.789701,71.11
2024-05-29_12-11-16.822430,29.21
2024-05-29_12-11-16.851098,51.58
2024-05-29_12-11-16.883866,43.37
2024-05-29_12-11-16.916624,51.73
2024-05-29_12-11-16.949426,49.21
2024-05-29_12-11-16.982186,47.04
2024-05-29_12-11-17.014948,53.52
2024-05-29_12-11-17.047709,41.19
2024-05-29_12-11-17.076534,53.61
2024-05-29_12-11-17.109126,75.05
2024-05-29_12-11-17.141914,78.22
2024-05-29_12-11-17.174656,46.42
2024-05-29_12-11-17.207546,44.26
2024-05-29_12-11-17.241147,42.41
2024-05-29_12-11-17.273210,53.98
2024-05-29_12-11-17.305710,41.56
2024-05-29_12-11-17.334536,54.33
2024-05-29_12-11-17.367210,49.49
2024-05-29_12-11-17.399946,42.66
2024-05-29_12-11-17.432703,50.88
2024-05-29_12-11-17.465601,37.34
2024-05-29_12-11-17.498348,76.29
2024-05-29_12-11-17.530937,74.98
2024-05-29_12-11-17.559678,31.96
2024-05-29_12-11-17.592452,53.86
2024-05-29_12-11-17.625221,41.55
2024-05-29_12-11-17.657987,51.03
2024-05-29_12-11-17.690756,48.57
2024-05-29_12-11-17.723500,44.09
2024-05-29_12-11-17.756273,54.97
2024-05-29_12-11-17.784943,41.41
2024-05-29_12-11-17.817721,46.48
2024-05-29_12-11-17.850481,82.27
2024-05-29_12-11-17.883255,75.48
2024-05-29_12-11-17.915990,59.46
2024-05-29_12-11-17.948770,48.90
2024-05-29_12-11-17.981572,35.08
2024-05-29_12-11-18.014297,50.41
2024-05-29_12-11-18.042991,44.83
2024-05-29_12-11-18.075789,53.76
2024-05-29_12-11-18.108547,49.92
2024-05-29_12-11-18.141307,46.30
2024-05-29_12-11-18.174094,53.04
2024-05-29_12-11-18.206840,65.43
2024-05-29_12-11-18.239582,60.71
2024-05-29_12-11-18.268249,46.97
2024-05-29_12-11-18.301046,35.71
2024-05-29_12-11-18.333926,56.91
2024-05-29_12-11-18.366587,41.70
2024-05-29_12-11-18.399329,51.27
2024-05-29_12-11-18.433233,52.35
2024-05-29_12-11-18.464826,44.07
2024-05-29_12-11-18.493499,63.17
2024-05-29_12-11-18.526285,72.41
2024-05-29_12-11-18.559031,74.98
2024-05-29_12-11-18.591817,75.05
2024-05-29_12-11-18.624604,76.45
2024-05-29_12-11-18.657372,50.03
2024-05-29_12-11-18.690146,47.80
2024-05-29_12-11-18.718802,45.22
2024-05-29_12-11-18.751588,52.95
2024-05-29_12-11-18.784329,42.63
2024-05-29_12-11-18.817098,53.99
2024-05-29_12-11-18.849914,51.57
2024-05-29_12-11-18.882703,44.15
2024-05-29_12-11-18.915489,45.69
2024-05-29_12-11-18.948117,88.92
2024-05-29_12-11-18.976826,73.74
2024-05-29_12-11-19.009587,63.54
2024-05-29_12-11-19.042360,39.38
2024-05-29_12-11-19.075133,52.61
2024-05-29_12-11-19.107956,41.69
2024-05-29_12-11-19.140688,54.22
2024-05-29_12-11-19.173459,49.01
2024-05-29_12-11-19.202205,44.07
2024-05-29_12-11-19.234919,54.02
2024-05-29_12-11-19.267657,33.33
2024-05-29_12-11-19.300464,84.38
2024-05-29_12-11-19.333233,77.01
2024-05-29_12-11-19.366002,51.34
2024-05-29_12-11-19.398722,50.37
2024-05-29_12-11-19.427433,48.71
2024-05-29_12-11-19.460171,42.61
2024-05-29_12-11-19.492938,50.50
2024-05-29_12-11-19.525694,41.92
2024-05-29_12-11-19.558451,53.26
2024-05-29_12-11-19.591200,52.00
2024-05-29_12-11-19.623963,38.52
2024-05-29_12-11-19.652692,80.47
2024-05-29_12-11-19.685461,62.03
2024-05-29_12-11-19.718158,49.74
2024-05-29_12-11-19.750975,49.27
2024-05-29_12-11-19.783728,43.59
2024-05-29_12-11-19.816497,55.47
2024-05-29_12-11-19.849274,41.46
2024-05-29_12-11-19.881985,52.23
2024-05-29_12-11-19.910705,50.69
2024-05-29_12-11-19.943461,44.42
2024-05-29_12-11-19.976228,49.30
2024-05-29_12-11-20.009042,84.08
2024-05-29_12-11-20.041783,74.00
2024-05-29_12-11-20.074529,53.01
2024-05-29_12-11-20.107263,45.40
2024-05-29_12-11-20.135991,53.32
2024-05-29_12-11-20.168739,49.16
2024-05-29_12-11-20.201474,45.99
2024-05-29_12-11-20.234260,50.78
2024-05-29_12-11-20.267042,42.30
2024-05-29_12-11-20.299830,55.93
2024-05-29_12-11-20.332646,43.46
2024-05-29_12-11-20.361255,93.01
2024-05-29_12-11-20.394031,68.76
2024-05-29_12-11-20.426787,45.59
2024-05-29_12-11-20.459528,48.13
2024-05-29_12-11-20.492364,51.31
2024-05-29_12-11-20.525066,43.42
2024-05-29_12-11-20.557866,53.28
2024-05-29_12-11-20.590572,44.04
2024-05-29_12-11-20.619242,52.06
2024-05-29_12-11-20.652055,48.89
2024-05-29_12-11-20.684820,39.17
2024-05-29_12-11-20.717548,80.70
2024-05-29_12-11-20.750335,81.23
2024-05-29_12-11-20.783123,75.16
2024-05-29_12-11-20.815858,45.44
2024-05-29_12-11-20.844566,41.61
2024-05-29_12-11-20.877299,53.85
2024-05-29_12-11-20.910140,51.75
2024-05-29_12-11-20.942856,43.80
2024-05-29_12-11-20.975600,50.30
2024-05-29_12-11-21.008417,44.49
2024-05-29_12-11-21.041164,53.54
2024-05-29_12-11-21.069862,54.16
2024-05-29_12-11-21.102583,73.10
2024-05-29_12-11-21.135393,50.58
2024-05-29_12-11-21.168114,39.95
2024-05-29_12-11-21.200885,54.69
2024-05-29_12-11-21.233625,47.99
2024-05-29_12-11-21.266473,44.12
2024-05-29_12-11-21.299187,54.06
2024-05-29_12-11-21.328038,41.65
2024-05-29_12-11-21.360708,51.82
2024-05-29_12-11-21.393437,49.45
2024-05-29_12-11-21.426172,70.47
2024-05-29_12-11-21.458942,73.12
2024-05-29_12-11-21.491712,64.08
2024-05-29_12-11-21.524448,41.42
2024-05-29_12-11-21.553146,49.88
2024-05-29_12-11-21.585920,42.47
2024-05-29_12-11-21.618670,53.21
2024-05-29_12-11-21.651471,51.56
2024-05-29_12-11-21.684206,44.78
2024-05-29_12-11-21.717005,47.43
2024-05-29_12-11-21.749746,44.91
2024-05-29_12-11-21.778407,64.31
2024-05-29_12-11-21.811184,86.21
2024-05-29_12-11-21.843925,70.05
2024-05-29_12-11-21.876702,47.59
2024-05-29_12-11-21.909489,40.02
2024-05-29_12-11-21.942239,52.05
2024-05-29_12-11-21.975046,50.67
2024-05-29_12-11-22.003675,44.28
2024-05-29_12-11-22.036498,54.05
2024-05-29_12-11-22.069268,43.11
2024-05-29_12-11-22.101997,51.63
2024-05-29_12-11-22.134743,44.07
2024-05-29_12-11-22.167530,89.69
2024-05-29_12-11-22.200270,70.57
2024-05-29_12-11-22.232993,37.85
2024-05-29_12-11-22.261710,44.88
2024-05-29_12-11-22.294448,50.08
2024-05-29_12-11-22.327244,41.52
2024-05-29_12-11-22.360139,55.90
2024-05-29_12-11-22.392827,49.15
2024-05-29_12-11-22.425640,43.48
2024-05-29_12-11-22.458328,53.21
2024-05-29_12-11-22.486999,41.93
2024-05-29_12-11-22.519750,83.71
2024-05-29_12-11-22.552514,79.80
2024-05-29_12-11-22.585316,33.28
2024-05-29_12-11-22.618172,52.47
2024-05-29_12-11-22.650830,43.78
2024-05-29_12-11-22.683585,52.37
2024-05-29_12-11-22.712262,49.28
2024-05-29_12-11-22.745031,44.99
2024-05-29_12-11-22.777811,56.22
2024-05-29_12-11-22.810560,41.50
2024-05-29_12-11-22.843361,51.29
2024-05-29_12-11-22.876090,79.72
2024-05-29_12-11-22.908898,74.37
2024-05-29_12-11-22.941584,51.68
2024-05-29_12-11-22.970326,51.58
2024-05-29_12-11-23.003084,43.21
2024-05-29_12-11-23.035846,50.56
2024-05-29_12-11-23.068674,43.93
2024-05-29_12-11-23.101386,53.57
2024-05-29_12-11-23.134180,48.46
2024-05-29_12-11-23.166850,44.24
2024-05-29_12-11-23.195545,50.17
2024-05-29_12-11-23.228336,37.85
2024-05-29_12-11-23.261100,82.22
2024-05-29_12-11-23.293856,61.24
2024-05-29_12-11-23.326626,40.50
2024-05-29_12-11-23.359479,52.98
2024-05-29_12-11-23.392155,41.43
2024-05-29_12-11-23.420853,51.42
2024-05-29_12-11-23.453628,49.45
2024-05-29_12-11-23.486372,43.37
2024-05-29_12-11-23.519125,55.82
2024-05-29_12-11-23.551897,41.47
2024-05-29_12-11-23.584720,45.80
2024-05-29_12-11-23.617520,75.82
2024-05-29_12-11-23.646118,83.32
2024-05-29_12-11-23.678866,42.52
2024-05-29_12-11-23.711660,49.49
2024-05-29_12-11-23.744391,44.19
2024-05-29_12-11-23.777205,50.31
2024-05-29_12-11-23.809961,43.54
2024-05-29_12-11-23.842733,55.83
2024-05-29_12-11-23.875504,48.95
2024-05-29_12-11-23.904200,45.56
2024-05-29_12-11-23.936931,52.74
2024-05-29_12-11-23.969690,37.52
2024-05-29_12-11-24.002497,82.41
2024-05-29_12-11-24.035252,49.82
2024-05-29_12-11-24.068017,42.48
2024-05-29_12-11-24.100719,52.08
2024-05-29_12-11-24.129421,43.32
2024-05-29_12-11-24.162209,51.87
2024-05-29_12-11-24.194997,49.47
2024-05-29_12-11-24.227763,45.95
2024-05-29_12-11-24.260525,53.48
2024-05-29_12-11-24.293246,42.53
2024-05-29_12-11-24.325959,47.13
2024-05-29_12-11-24.354762,82.65
2024-05-29_12-11-24.387556,75.73
2024-05-29_12-11-24.420238,78.21
2024-05-29_12-11-24.453022,45.00
2024-05-29_12-11-24.485776,43.40
2024-05-29_12-11-24.518521,53.61
2024-05-29_12-11-24.551328,41.59
2024-05-29_12-11-24.579945,53.51
2024-05-29_12-11-24.612747,52.20
2024-05-29_12-11-24.645536,43.40
2024-05-29_12-11-24.678264,50.18
2024-05-29_12-11-24.711039,56.17
2024-05-29_12-11-24.743787,82.01
2024-05-29_12-11-24.776577,50.94
2024-05-29_12-11-24.809279,34.83
2024-05-29_12-11-24.838009,56.28
2024-05-29_12-11-24.871285,40.71
2024-05-29_12-11-24.903723,51.93
2024-05-29_12-11-24.936316,50.06
2024-05-29_12-11-24.969082,43.93
2024-05-29_12-11-25.001843,53.25
2024-05-29_12-11-25.034618,41.60
2024-05-29_12-11-25.063286,47.07
2024-05-29_12-11-25.097637,70.62
2024-05-29_12-11-25.129010,80.91
2024-05-29_12-11-25.161779,47.56
2024-05-29_12-11-25.194668,45.76
2024-05-29_12-11-25.227164,42.71
2024-05-29_12-11-25.259862,50.47
2024-05-29_12-11-25.288558,43.75
2024-05-29_12-11-25.321311,54.33
2024-05-29_12-11-25.354144,49.20
2024-05-29_12-11-25.386912,46.73
2024-05-29_12-11-25.419647,51.20
2024-05-29_12-11-25.452423,73.68
2024-05-29_12-11-25.485180,83.04
2024-05-29_12-11-25.517868,76.67
2024-05-29_12-11-25.546634,27.64
2024-05-29_12-11-25.579337,53.30
2024-05-29_12-11-25.612125,41.53
2024-05-29_12-11-25.644867,51.25
2024-05-29_12-11-25.677658,52.01
2024-05-29_12-11-25.710375,43.88
2024-05-29_12-11-25.743090,49.31
2024-05-29_12-11-25.771856,44.58
2024-05-29_12-11-25.804649,51.33
2024-05-29_12-11-25.838870,70.04
2024-05-29_12-11-25.870270,83.47
2024-05-29_12-11-25.902983,47.85
2024-05-29_12-11-25.935685,40.57
2024-05-29_12-11-25.968488,43.46
2024-05-29_12-11-25.997130,52.90
2024-05-29_12-11-26.029919,42.22
2024-05-29_12-11-26.062711,54.16
2024-05-29_12-11-26.095434,51.06
2024-05-29_12-11-26.128187,44.42
2024-05-29_12-11-26.160952,51.19
2024-05-29_12-11-26.193721,83.50
2024-05-29_12-11-26.222410,73.02
2024-05-29_12-11-26.255159,58.40
2024-05-29_12-11-26.288005,35.48
2024-05-29_12-11-26.320733,53.82
2024-05-29_12-11-26.353549,41.69
2024-05-29_12-11-26.386300,54.01
2024-05-29_12-11-26.419285,48.92
2024-05-29_12-11-26.447716,44.09
2024-05-29_12-11-26.480429,56.66
2024-05-29_12-11-26.513247,37.66
2024-05-29_12-11-26.545973,79.25
2024-05-29_12-11-26.578705,77.49
2024-05-29_12-11-26.611522,62.77
2024-05-29_12-11-26.644306,39.63
2024-05-29_12-11-26.677042,53.70
2024-05-29_12-11-26.705709,42.80
2024-05-29_12-11-26.738555,50.44
2024-05-29_12-11-26.771222,42.75
2024-05-29_12-11-26.804038,54.31
2024-05-29_12-11-26.836763,49.32
2024-05-29_12-11-26.869565,44.48
2024-05-29_12-11-26.902305,45.45
2024-05-29_12-11-26.931001,83.67
2024-05-29_12-11-26.963755,77.43
2024-05-29_12-11-26.996521,25.80
2024-05-29_12-11-27.029298,44.57
2024-05-29_12-11-27.062076,53.46
2024-05-29_12-11-27.094793,41.31
2024-05-29_12-11-27.127570,51.43
2024-05-29_12-11-27.156242,50.30
2024-05-29_12-11-27.189017,43.63
2024-05-29_12-11-27.221892,54.12
2024-05-29_12-11-27.254568,41.18
2024-05-29_12-11-27.287325,74.87
2024-05-29_12-11-27.320103,78.97
2024-05-29_12-11-27.352897,52.16
2024-05-29_12-11-27.385594,47.69
2024-05-29_12-11-27.414326,48.48
2024-05-29_12-11-27.447034,46.15
2024-05-29_12-11-27.479831,51.00
2024-05-29_12-11-27.512613,41.24
2024-05-29_12-11-27.545382,56.60
2024-05-29_12-11-27.578131,49.09
2024-05-29_12-11-27.610910,43.97
2024-05-29_12-11-27.639551,79.22
2024-05-29_12-11-27.672363,82.07
2024-05-29_12-11-27.705096,46.30
2024-05-29_12-11-27.737886,44.50
2024-05-29_12-11-27.770659,44.52
2024-05-29_12-11-27.803363,53.61
2024-05-29_12-11-27.836152,44.72
2024-05-29_12-11-27.864845,52.01
2024-05-29_12-11-27.897580,48.48
2024-05-29_12-11-27.930389,45.13
2024-05-29_12-11-27.963183,56.07
2024-05-29_12-11-27.995929,69.41
2024-05-29_12-11-28.028694,68.97
2024-05-29_12-11-28.061453,32.41
2024-05-29_12-11-28.090117,43.75
2024-05-29_12-11-28.122866,53.53
2024-05-29_12-11-28.155622,50.54
2024-05-29_12-11-28.188420,44.00
2024-05-29_12-11-28.221121,51.30
2024-05-29_12-11-28.253943,45.57
2024-05-29_12-11-28.286749,53.67
2024-05-29_12-11-28.319418,49.25
2024-05-29_12-11-28.348119,72.74
2024-05-29_12-11-28.380983,68.61
2024-05-29_12-11-28.413698,78.68
2024-05-29_12-11-28.446465,60.52
2024-05-29_12-11-28.479207,45.69
2024-05-29_12-11-28.511975,44.02
2024-05-29_12-11-28.544695,56.66
2024-05-29_12-11-28.573419,40.92
2024-05-29_12-11-28.606178,50.92
2024-05-29_12-11-28.639033,50.03
2024-05-29_12-11-28.671746,43.41
2024-05-29_12-11-28.704596,59.67
2024-05-29_12-11-28.737301,85.65
2024-05-29_12-11-28.769994,70.91
2024-05-29_12-11-28.798696,63.66
2024-05-29_12-11-28.831420,32.63
2024-05-29_12-11-28.864220,54.94
2024-05-29_12-11-28.896998,48.81
2024-05-29_12-11-28.929773,44.28
2024-05-29_12-11-28.962560,50.54
2024-05-29_12-11-28.995279,42.77
2024-05-29_12-11-29.028012,52.47
2024-05-29_12-11-29.056738,81.89
2024-05-29_12-11-29.089561,50.38
2024-05-29_12-11-29.122280,50.19
2024-05-29_12-11-29.155061,39.80
2024-05-29_12-11-29.187822,51.14
2024-05-29_12-11-29.220576,50.64
2024-05-29_12-11-29.253311,44.16
2024-05-29_12-11-29.281960,54.00
2024-05-29_12-11-29.314778,44.04
2024-05-29_12-11-29.347556,51.73
2024-05-29_12-11-29.380368,55.40
2024-05-29_12-11-29.413114,80.88
2024-05-29_12-11-29.445862,69.00
2024-05-29_12-11-29.478640,47.79
2024-05-29_12-11-29.507273,45.33
2024-05-29_12-11-29.540046,50.62
2024-05-29_12-11-29.572764,41.28
2024-05-29_12-11-29.605595,55.93
2024-05-29_12-11-29.638352,49.04
2024-05-29_12-11-29.671138,43.72
2024-05-29_12-11-29.703891,63.13
2024-05-29_12-11-29.736586,75.71
2024-05-29_12-11-29.765314,74.58
2024-05-29_12-11-29.798093,82.77
2024-05-29_12-11-29.830863,66.04
2024-05-29_12-11-29.863650,50.57
2024-05-29_12-11-29.896335,43.98
2024-05-29_12-11-29.929166,51.75
2024-05-29_12-11-29.961873,48.37
2024-05-29_12-11-29.990561,44.71
2024-05-29_12-11-30.023343,55.62
2024-05-29_12-11-30.056140,41.05
2024-05-29_12-11-30.088897,52.19
2024-05-29_12-11-30.121676,53.25
2024-05-29_12-11-30.154442,77.31
2024-05-29_12-11-30.187167,74.31
2024-05-29_12-11-30.215834,47.32
2024-05-29_12-11-30.248623,43.10
2024-05-29_12-11-30.281404,50.77
2024-05-29_12-11-30.314152,46.26
2024-05-29_12-11-30.346919,53.47
2024-05-29_12-11-30.379770,49.48
2024-05-29_12-11-30.412438,47.29
2024-05-29_12-11-30.441137,50.34
2024-05-29_12-11-30.473896,38.16
2024-05-29_12-11-30.506655,80.34
2024-05-29_12-11-30.539431,82.26
2024-05-29_12-11-30.572206,42.70
2024-05-29_12-11-30.604969,54.52
2024-05-29_12-11-30.637747,40.95
2024-05-29_12-11-30.670485,50.86
2024-05-29_12-11-30.699196,50.35
2024-05-29_12-11-30.731943,55.08
2024-05-29_12-11-30.764701,55.00
2024-05-29_12-11-30.797498,41.90
2024-05-29_12-11-30.830254,45.76
2024-05-29_12-11-30.863034,73.97
2024-05-29_12-11-30.895723,86.73
2024-05-29_12-11-30.924532,50.34
2024-05-29_12-11-30.957288,47.20
2024-05-29_12-11-30.989964,43.94
2024-05-29_12-11-31.022738,50.05
2024-05-29_12-11-31.055562,42.35
2024-05-29_12-11-31.088294,55.64
2024-05-29_12-11-31.121053,49.27
2024-05-29_12-11-31.149700,45.08
2024-05-29_12-11-31.182475,47.90
2024-05-29_12-11-31.215249,75.71
2024-05-29_12-11-31.248010,74.79
2024-05-29_12-11-31.280791,51.09
2024-05-29_12-11-31.313579,41.46
2024-05-29_12-11-31.346316,52.36
2024-05-29_12-11-31.379077,44.60
2024-05-29_12-11-31.407751,51.59
2024-05-29_12-11-31.440554,48.95
2024-05-29_12-11-31.473284,46.66
2024-05-29_12-11-31.506070,53.82
2024-05-29_12-11-31.538841,38.30
2024-05-29_12-11-31.571606,63.54
2024-05-29_12-11-31.604329,66.78
2024-05-29_12-11-31.633012,50.46
2024-05-29_12-11-31.665797,52.97
2024-05-29_12-11-31.698608,47.92
2024-05-29_12-11-31.731303,43.55
2024-05-29_12-11-31.764105,52.92
2024-05-29_12-11-31.796869,42.40
2024-05-29_12-11-31.829670,53.58
2024-05-29_12-11-31.858272,52.05
2024-05-29_12-11-31.891109,43.73
2024-05-29_12-11-31.923816,58.89
2024-05-29_12-11-31.956589,71.23
2024-05-29_12-11-31.989340,67.48
2024-05-29_12-11-32.022100,60.35
2024-05-29_12-11-32.054914,43.26
2024-05-29_12-11-32.083611,54.81
2024-05-29_12-11-32.116337,40.57
2024-05-29_12-11-32.149093,51.70
2024-05-29_12-11-32.181850,51.28
2024-05-29_12-11-32.214632,43.82
2024-05-29_12-11-32.247374,53.28
2024-05-29_12-11-32.280188,41.87
2024-05-29_12-11-32.312911,62.87
2024-05-29_12-11-32.341601,77.74
2024-05-29_12-11-32.374427,68.44
2024-05-29_12-11-32.407163,51.07
2024-05-29_12-11-32.439929,48.17
2024-05-29_12-11-32.472662,47.27
2024-05-29_12-11-32.505443,50.47
2024-05-29_12-11-32.538182,41.92
2024-05-29_12-11-32.566859,54.56
2024-05-29_12-11-32.599622,48.83
2024-05-29_12-11-32.632377,43.56
2024-05-29_12-11-32.665195,57.94
2024-05-29_12-11-32.697959,58.64
2024-05-29_12-11-32.730734,68.62
2024-05-29_12-11-32.763476,46.56
2024-05-29_12-11-32.792159,42.66
2024-05-29_12-11-32.824938,53.34
2024-05-29_12-11-32.857698,41.65
2024-05-29_12-11-32.890461,50.71
2024-05-29_12-11-32.923222,51.51
2024-05-29_12-11-32.956049,44.79
2024-05-29_12-11-32.988762,53.30
2024-05-29_12-11-33.021482,53.88
2024-05-29_12-11-33.050205,55.66
2024-05-29_12-11-33.082960,68.96
2024-05-29_12-11-33.115729,43.21
2024-05-29_12-11-33.148483,51.32
2024-05-29_12-11-33.181250,48.15
2024-05-29_12-11-33.214028,44.72
2024-05-29_12-11-33.246762,52.40
2024-05-29_12-11-33.275437,42.46
2024-05-29_12-11-33.308302,54.23
2024-05-29_12-11-33.341011,50.33
2024-05-29_12-11-33.373764,39.43
2024-05-29_12-11-33.406599,66.94
2024-05-29_12-11-33.439335,84.63
2024-05-29_12-11-33.472038,61.01
2024-05-29_12-11-33.500754,46.24
2024-05-29_12-11-33.533458,46.24
2024-05-29_12-11-33.566263,53.18
2024-05-29_12-11-33.599047,41.57
2024-05-29_12-11-33.631825,53.71
2024-05-29_12-11-33.664603,49.06
2024-05-29_12-11-33.697366,44.15
2024-05-29_12-11-33.726009,85.93
2024-05-29_12-11-33.758795,80.79
2024-05-29_12-11-33.791572,77.44
2024-05-29_12-11-33.824301,71.45
2024-05-29_12-11-33.857062,42.54
2024-05-29_12-11-33.889871,50.90
2024-05-29_12-11-33.922662,51.49
2024-05-29_12-11-33.955299,43.41
2024-05-29_12-11-33.984025,50.63
2024-05-29_12-11-34.016763,43.08
2024-05-29_12-11-34.049614,55.73
2024-05-29_12-11-34.082352,48.54
2024-05-29_12-11-34.115172,38.52
2024-05-29_12-11-34.147893,81.09
2024-05-29_12-11-34.180600,76.01
2024-05-29_12-11-34.209324,48.30
2024-05-29_12-11-34.242072,48.57
2024-05-29_12-11-34.274845,43.33
2024-05-29_12-11-34.307612,52.85
2024-05-29_12-11-34.340407,43.70
2024-05-29_12-11-34.373121,51.36
2024-05-29_12-11-34.405889,48.86
2024-05-29_12-11-34.434653,44.28
2024-05-29_12-11-34.467361,48.49
2024-05-29_12-11-34.500135,57.55
2024-05-29_12-11-34.532883,71.12
2024-05-29_12-11-34.565661,46.41
2024-05-29_12-11-34.598438,40.20
2024-05-29_12-11-34.631199,52.71
2024-05-29_12-11-34.663938,48.46
2024-05-29_12-11-34.693086,43.89
2024-05-29_12-11-34.725569,51.04
2024-05-29_12-11-34.758192,41.42
2024-05-29_12-11-34.790923,55.94
2024-05-29_12-11-34.823741,44.85
2024-05-29_12-11-34.856486,56.89
2024-05-29_12-11-34.889187,71.67
2024-05-29_12-11-34.917894,75.23
2024-05-29_12-11-34.951176,51.40
2024-05-29_12-11-34.989597,49.59
2024-05-29_12-11-35.016325,44.07
2024-05-29_12-11-35.048987,53.02
2024-05-29_12-11-35.081714,44.78
2024-05-29_12-11-35.114540,51.85
2024-05-29_12-11-35.143167,48.91
2024-05-29_12-11-35.175916,45.09
2024-05-29_12-11-35.208684,63.11
