timestamp,EMG
2024-05-28_13-24-29.149728,"54.76,63.91"
2024-05-28_13-24-29.182447,"54.78,74.41"
2024-05-28_13-24-29.215244,"61.34,70.85"
2024-05-28_13-24-29.247857,"51.51,69.20"
2024-05-28_13-24-29.276692,"63.09,75.55"
2024-05-28_13-24-29.309434,"91.72,62.76"
2024-05-28_13-24-29.342191,"68.46,76.13"
2024-05-28_13-24-29.374929,"87.67,74.81"
2024-05-28_13-24-29.407724,"85.64,45.75"
2024-05-28_13-24-29.440511,"57.65,54.77"
2024-05-28_13-24-29.473176,"59.95,73.07"
2024-05-28_13-24-29.501915,"65.33,68.14"
2024-05-28_13-24-29.534684,"52.92,69.49"
2024-05-28_13-24-29.567480,"58.09,70.25"
2024-05-28_13-24-29.600243,"81.36,89.64"
2024-05-28_13-24-29.633002,"71.55,75.36"
2024-05-28_13-24-29.665712,"79.98,63.19"
2024-05-28_13-24-29.698427,"90.41,59.02"
2024-05-28_13-24-29.727182,"72.91,61.03"
2024-05-28_13-24-29.760421,"56.57,61.80"
2024-05-28_13-24-29.792796,"54.41,69.60"
2024-05-28_13-24-29.825508,"73.46,67.80"
2024-05-28_13-24-29.858256,"54.79,70.27"
2024-05-28_13-24-29.890984,"54.06,81.61"
2024-05-28_13-24-29.923686,"76.04,75.84"
2024-05-28_13-24-29.952484,"80.80,73.49"
2024-05-28_13-24-29.985217,"90.65,64.88"
2024-05-28_13-24-30.018046,"63.95,57.51"
2024-05-28_13-24-30.050803,"67.70,74.80"
2024-05-28_13-24-30.083520,"52.54,67.23"
2024-05-28_13-24-30.116296,"56.72,69.97"
2024-05-28_13-24-30.149037,"68.77,67.74"
2024-05-28_13-24-30.177760,"51.40,69.52"
2024-05-28_13-24-30.210535,"70.24,87.51"
2024-05-28_13-24-30.246564,"70.51,70.38"
2024-05-28_13-24-30.276450,"83.00,71.90"
2024-05-28_13-24-30.308901,"102.93,65.48"
2024-05-28_13-24-30.341669,"68.67,55.93"
2024-05-28_13-24-30.374269,"69.83,59.32"
2024-05-28_13-24-30.403033,"54.41,64.42"
2024-05-28_13-24-30.435803,"55.77,68.46"
2024-05-28_13-24-30.468718,"65.30,66.94"
2024-05-28_13-24-30.501350,"51.42,78.98"
2024-05-28_13-24-30.534078,"70.73,80.42"
2024-05-28_13-24-30.566787,"85.21,75.54"
2024-05-28_13-24-30.599464,"89.21,71.23"
2024-05-28_13-24-30.628275,"97.35,64.97"
2024-05-28_13-24-30.661029,"62.81,65.15"
2024-05-28_13-24-30.693845,"59.77,59.18"
2024-05-28_13-24-30.726584,"59.45,64.41"
2024-05-28_13-24-30.759327,"73.60,68.13"
2024-05-28_13-24-30.792096,"50.54,76.68"
2024-05-28_13-24-30.824778,"53.79,70.29"
2024-05-28_13-24-30.853485,"79.41,75.98"
2024-05-28_13-24-30.886270,"75.32,61.50"
2024-05-28_13-24-30.919059,"91.84,73.96"
2024-05-28_13-24-30.951840,"92.75,40.51"
2024-05-28_13-24-30.984581,"61.65,58.09"
2024-05-28_13-24-31.017363,"50.08,71.35"
2024-05-28_13-24-31.050022,"56.21,65.45"
2024-05-28_13-24-31.078777,"66.11,77.78"
2024-05-28_13-24-31.111565,"49.27,71.12"
2024-05-28_13-24-31.144309,"56.42,81.99"
2024-05-28_13-24-31.177153,"75.94,75.89"
2024-05-28_13-24-31.209815,"85.40,62.44"
2024-05-28_13-24-31.242590,"89.22,74.11"
2024-05-28_13-24-31.275303,"82.43,58.59"
2024-05-28_13-24-31.304087,"55.15,47.31"
2024-05-28_13-24-31.336826,"47.27,68.63"
2024-05-28_13-24-31.369582,"73.04,74.54"
2024-05-28_13-24-31.402391,"56.89,69.38"
2024-05-28_13-24-31.435281,"51.66,71.07"
2024-05-28_13-24-31.467872,"84.47,74.22"
2024-05-28_13-24-31.500590,"61.63,72.43"
2024-05-28_13-24-31.529597,"85.05,73.80"
2024-05-28_13-24-31.562325,"75.65,63.45"
2024-05-28_13-24-31.594877,"77.61,37.19"
2024-05-28_13-24-31.627627,"53.56,64.24"
2024-05-28_13-24-31.660404,"53.55,75.00"
2024-05-28_13-24-31.693163,"59.21,70.22"
2024-05-28_13-24-31.725890,"51.71,68.90"
2024-05-28_13-24-31.754598,"65.28,78.61"
2024-05-28_13-24-31.787400,"85.89,59.20"
2024-05-28_13-24-31.820173,"71.00,74.54"
2024-05-28_13-24-31.852924,"90.26,75.63"
2024-05-28_13-24-31.885655,"59.12,67.17"
2024-05-28_13-24-31.918398,"56.10,55.22"
2024-05-28_13-24-31.951189,"58.81,73.35"
2024-05-28_13-24-31.983856,"61.00,68.24"
2024-05-28_13-24-32.012601,"51.76,70.02"
2024-05-28_13-24-32.045404,"64.34,72.07"
2024-05-28_13-24-32.078158,"86.73,82.33"
2024-05-28_13-24-32.110920,"67.13,73.29"
2024-05-28_13-24-32.143698,"82.68,63.81"
2024-05-28_13-24-32.176446,"93.32,59.58"
2024-05-28_13-24-32.209118,"67.35,58.81"
2024-05-28_13-24-32.237877,"66.54,76.20"
2024-05-28_13-24-32.270709,"54.59,70.00"
2024-05-28_13-24-32.303470,"68.41,67.13"
2024-05-28_13-24-32.336186,"56.06,70.41"
2024-05-28_13-24-32.368992,"70.67,78.51"
2024-05-28_13-24-32.401682,"71.58,78.56"
2024-05-28_13-24-32.434341,"82.10,73.02"
2024-05-28_13-24-32.463171,"95.31,66.36"
2024-05-28_13-24-32.495962,"76.41,52.02"
2024-05-28_13-24-32.528715,"55.33,61.96"
2024-05-28_13-24-32.561647,"52.86,65.63"
2024-05-28_13-24-32.594226,"66.40,68.50"
2024-05-28_13-24-32.626983,"62.73,67.97"
2024-05-28_13-24-32.659676,"53.58,71.97"
2024-05-28_13-24-32.688431,"79.35,82.76"
2024-05-28_13-24-32.721183,"64.01,61.20"
2024-05-28_13-24-32.753966,"85.46,72.87"
2024-05-28_13-24-32.786737,"107.26,47.63"
2024-05-28_13-24-32.819484,"61.18,39.76"
2024-05-28_13-24-32.852222,"49.56,72.57"
2024-05-28_13-24-32.884956,"58.30,65.67"
2024-05-28_13-24-32.913722,"65.26,68.87"
2024-05-28_13-24-32.946448,"54.68,68.46"
2024-05-28_13-24-32.979261,"55.24,89.29"
2024-05-28_13-24-33.012070,"75.32,76.99"
2024-05-28_13-24-33.044806,"71.77,64.31"
2024-05-28_13-24-33.077572,"81.63,69.92"
2024-05-28_13-24-33.110202,"59.16,75.11"
2024-05-28_13-24-33.139071,"59.49,53.15"
2024-05-28_13-24-33.171731,"52.96,70.46"
2024-05-28_13-24-33.204495,"73.05,65.50"
2024-05-28_13-24-33.237506,"59.26,68.25"
2024-05-28_13-24-33.270071,"50.35,78.74"
2024-05-28_13-24-33.302776,"70.70,77.71"
2024-05-28_13-24-33.335497,"71.11,64.64"
2024-05-28_13-24-33.365335,"80.69,69.17"
2024-05-28_13-24-33.397288,"101.15,58.72"
2024-05-28_13-24-33.429781,"75.48,40.86"
2024-05-28_13-24-33.462568,"45.55,64.47"
2024-05-28_13-24-33.495335,"55.25,68.56"
2024-05-28_13-24-33.528057,"63.83,65.57"
2024-05-28_13-24-33.560756,"51.67,77.50"
2024-05-28_13-24-33.589524,"52.73,72.29"
2024-05-28_13-24-33.622327,"86.73,69.39"
2024-05-28_13-24-33.655073,"81.84,73.66"
2024-05-28_13-24-33.687853,"92.91,65.39"
2024-05-28_13-24-33.720677,"80.88,38.61"
2024-05-28_13-24-33.753382,"64.71,60.80"
2024-05-28_13-24-33.786026,"56.01,64.47"
2024-05-28_13-24-33.814927,"66.37,67.62"
2024-05-28_13-24-33.847564,"59.42,75.48"
2024-05-28_13-24-33.880290,"50.11,70.63"
2024-05-28_13-24-33.913098,"53.70,70.62"
2024-05-28_13-24-33.945850,"83.26,69.32"
2024-05-28_13-24-33.978592,"87.44,75.11"
2024-05-28_13-24-34.011307,"90.09,75.34"
2024-05-28_13-24-34.040047,"93.58,59.84"
2024-05-28_13-24-34.072768,"56.64,58.14"
2024-05-28_13-24-34.105526,"56.92,65.96"
2024-05-28_13-24-34.138406,"72.06,75.75"
2024-05-28_13-24-34.171208,"49.12,70.98"
2024-05-28_13-24-34.203903,"54.82,70.89"
2024-05-28_13-24-34.236603,"92.70,77.93"
2024-05-28_13-24-34.265332,"84.30,61.95"
2024-05-28_13-24-34.298113,"85.09,74.17"
2024-05-28_13-24-34.330879,"93.84,60.77"
2024-05-28_13-24-34.363577,"65.58,45.74"
2024-05-28_13-24-34.396327,"45.48,69.28"
2024-05-28_13-24-34.429173,"59.23,74.08"
2024-05-28_13-24-34.461836,"62.09,68.73"
2024-05-28_13-24-34.490521,"50.13,70.68"
2024-05-28_13-24-34.523328,"76.33,78.86"
2024-05-28_13-24-34.556127,"80.68,80.23"
2024-05-28_13-24-34.588842,"85.60,72.68"
2024-05-28_13-24-34.621617,"93.86,64.28"
2024-05-28_13-24-34.654421,"76.53,49.12"
2024-05-28_13-24-34.687127,"60.21,47.94"
2024-05-28_13-24-34.715845,"53.61,75.13"
2024-05-28_13-24-34.748660,"66.07,69.67"
2024-05-28_13-24-34.781395,"56.84,68.09"
2024-05-28_13-24-34.814130,"59.51,73.12"
2024-05-28_13-24-34.846911,"76.66,71.86"
2024-05-28_13-24-34.879628,"60.53,73.05"
2024-05-28_13-24-34.912416,"86.80,74.48"
2024-05-28_13-24-34.947883,"94.25,47.60"
2024-05-28_13-24-34.973997,"71.77,53.63"
2024-05-28_13-24-35.006803,"53.19,74.14"
2024-05-28_13-24-35.039427,"70.73,66.70"
2024-05-28_13-24-35.072281,"57.57,69.32"
2024-05-28_13-24-35.105047,"61.82,69.84"
2024-05-28_13-24-35.137647,"79.29,89.91"
2024-05-28_13-24-35.170393,"75.32,66.76"
2024-05-28_13-24-35.199174,"70.10,66.30"
2024-05-28_13-24-35.231951,"89.19,74.38"
2024-05-28_13-24-35.264729,"92.63,45.35"
2024-05-28_13-24-35.297513,"51.31,61.73"
2024-05-28_13-24-35.330261,"54.38,70.37"
2024-05-28_13-24-35.362942,"62.56,66.01"
2024-05-28_13-24-35.395641,"56.98,69.93"
2024-05-28_13-24-35.424440,"52.81,70.89"
2024-05-28_13-24-35.457165,"85.92,78.40"
2024-05-28_13-24-35.489971,"79.20,74.31"
2024-05-28_13-24-35.522675,"87.76,67.15"
2024-05-28_13-24-35.555486,"86.64,55.93"
2024-05-28_13-24-35.588171,"73.04,53.57"
2024-05-28_13-24-35.620953,"51.56,64.01"
2024-05-28_13-24-35.649677,"54.11,68.45"
2024-05-28_13-24-35.682487,"76.81,66.76"
2024-05-28_13-24-35.715192,"49.50,69.64"
2024-05-28_13-24-35.747962,"53.84,91.49"
2024-05-28_13-24-35.780721,"75.75,68.92"
2024-05-28_13-24-35.813458,"77.06,73.52"
2024-05-28_13-24-35.846128,"94.29,66.22"
2024-05-28_13-24-35.874904,"83.31,59.04"
2024-05-28_13-24-35.907702,"65.05,60.44"
2024-05-28_13-24-35.940473,"52.61,64.80"
2024-05-28_13-24-35.973191,"52.97,69.13"
2024-05-28_13-24-36.006009,"66.59,67.62"
2024-05-28_13-24-36.038749,"50.12,79.98"
2024-05-28_13-24-36.071413,"69.92,78.07"
2024-05-28_13-24-36.100191,"80.20,63.89"
2024-05-28_13-24-36.132957,"71.34,71.66"
2024-05-28_13-24-36.165721,"99.60,68.64"
2024-05-28_13-24-36.198941,"80.48,60.86"
2024-05-28_13-24-36.231260,"70.12,60.48"
2024-05-28_13-24-36.263987,"58.31,64.64"
2024-05-28_13-24-36.296709,"57.13,68.76"
2024-05-28_13-24-36.325479,"54.01,78.17"
2024-05-28_13-24-36.358215,"52.12,70.34"
2024-05-28_13-24-36.391058,"81.06,76.87"
2024-05-28_13-24-36.423763,"71.29,64.52"
2024-05-28_13-24-36.456478,"88.77,75.49"
2024-05-28_13-24-36.489247,"90.12,41.18"
2024-05-28_13-24-36.521967,"60.97,60.04"
2024-05-28_13-24-36.550731,"48.71,72.42"
2024-05-28_13-24-36.583496,"56.66,64.56"
2024-05-28_13-24-36.616318,"67.68,77.53"
2024-05-28_13-24-36.649022,"49.50,72.61"
2024-05-28_13-24-36.681863,"82.20,73.39"
2024-05-28_13-24-36.714557,"67.10,67.71"
2024-05-28_13-24-36.747225,"84.14,67.22"
2024-05-28_13-24-36.776007,"92.60,60.03"
2024-05-28_13-24-36.809972,"74.47,60.67"
2024-05-28_13-24-36.841661,"66.93,66.39"
2024-05-28_13-24-36.874308,"44.53,68.50"
2024-05-28_13-24-36.907174,"68.95,74.87"
2024-05-28_13-24-36.939816,"55.23,69.74"
2024-05-28_13-24-36.972481,"50.89,72.23"
2024-05-28_13-24-37.001282,"77.30,68.11"
2024-05-28_13-24-37.034113,"77.06,78.99"
2024-05-28_13-24-37.066799,"83.61,74.93"
2024-05-28_13-24-37.099601,"85.88,43.27"
2024-05-28_13-24-37.132525,"53.37,74.31"
2024-05-28_13-24-37.165044,"60.68,64.33"
2024-05-28_13-24-37.197755,"52.55,74.93"
2024-05-28_13-24-37.226604,"59.52,70.68"
2024-05-28_13-24-37.259326,"52.05,69.64"
2024-05-28_13-24-37.292152,"62.57,81.43"
2024-05-28_13-24-37.324899,"82.93,56.34"
2024-05-28_13-24-37.357633,"71.87,75.32"
2024-05-28_13-24-37.390513,"85.99,60.83"
2024-05-28_13-24-37.423196,"85.09,45.57"
2024-05-28_13-24-37.451839,"57.48,55.93"
2024-05-28_13-24-37.484621,"55.64,73.91"
2024-05-28_13-24-37.517342,"63.36,67.62"
2024-05-28_13-24-37.550091,"50.90,71.07"
2024-05-28_13-24-37.582887,"57.52,70.01"
2024-05-28_13-24-37.615662,"74.54,78.73"
2024-05-28_13-24-37.648393,"80.08,73.61"
2024-05-28_13-24-37.677105,"81.39,63.00"
2024-05-28_13-24-37.709827,"90.02,58.84"
2024-05-28_13-24-37.742628,"66.87,55.13"
2024-05-28_13-24-37.775376,"63.47,77.19"
2024-05-28_13-24-37.808125,"52.86,69.62"
2024-05-28_13-24-37.840901,"75.13,66.45"
2024-05-28_13-24-37.873632,"57.02,70.91"
2024-05-28_13-24-37.902337,"52.26,79.30"
2024-05-28_13-24-37.935119,"68.67,71.52"
2024-05-28_13-24-37.967857,"81.62,74.01"
2024-05-28_13-24-38.000779,"88.40,65.86"
2024-05-28_13-24-38.033627,"88.18,55.85"
2024-05-28_13-24-38.066221,"65.54,62.21"
2024-05-28_13-24-38.098878,"50.91,64.95"
2024-05-28_13-24-38.127607,"53.36,69.06"
2024-05-28_13-24-38.160381,"67.09,70.49"
2024-05-28_13-24-38.193132,"77.33,74.65"
2024-05-28_13-24-38.225945,"69.82,81.55"
2024-05-28_13-24-38.258664,"67.41,62.20"
2024-05-28_13-24-38.291538,"82.53,73.82"
2024-05-28_13-24-38.324134,"97.20,64.83"
2024-05-28_13-24-38.356856,"81.95,57.05"
2024-05-28_13-24-38.385630,"55.08,60.34"
2024-05-28_13-24-38.418463,"54.52,63.70"
2024-05-28_13-24-38.451200,"53.63,68.98"
2024-05-28_13-24-38.483976,"69.24,67.84"
2024-05-28_13-24-38.516719,"50.10,78.45"
2024-05-28_13-24-38.549486,"70.71,78.32"
2024-05-28_13-24-38.582118,"69.88,64.24"
2024-05-28_13-24-38.610916,"85.49,70.60"
2024-05-28_13-24-38.643941,"95.42,64.34"
2024-05-28_13-24-38.676474,"65.21,58.23"
2024-05-28_13-24-38.709255,"56.22,58.95"
2024-05-28_13-24-38.742105,"59.58,64.47"
2024-05-28_13-24-38.774779,"61.52,68.37"
2024-05-28_13-24-38.803471,"54.98,77.33"
2024-05-28_13-24-38.836220,"51.82,69.71"
2024-05-28_13-24-38.868942,"79.34,75.87"
2024-05-28_13-24-38.901804,"71.01,65.96"
2024-05-28_13-24-38.934756,"90.35,73.80"
2024-05-28_13-24-38.967305,"92.79,60.81"
2024-05-28_13-24-39.000008,"62.48,55.79"
2024-05-28_13-24-39.032702,"63.42,72.47"
2024-05-28_13-24-39.061477,"59.43,64.55"
2024-05-28_13-24-39.094218,"70.90,76.40"
2024-05-28_13-24-39.127210,"65.42,74.32"
2024-05-28_13-24-39.159785,"85.98,75.55"
2024-05-28_13-24-39.192534,"70.65,65.09"
2024-05-28_13-24-39.225218,"82.62,67.40"
2024-05-28_13-24-39.257977,"86.88,74.77"
2024-05-28_13-24-39.286730,"69.10,78.12"
2024-05-28_13-24-39.319478,"68.37,46.47"
2024-05-28_13-24-39.352289,"43.42,69.21"
2024-05-28_13-24-39.385025,"59.80,74.73"
2024-05-28_13-24-39.417802,"66.26,68.27"
2024-05-28_13-24-39.450521,"50.84,70.43"
2024-05-28_13-24-39.483266,"84.44,73.77"
2024-05-28_13-24-39.511988,"62.27,75.03"
2024-05-28_13-24-39.546780,"83.13,73.80"
2024-05-28_13-24-39.577562,"95.86,64.56"
2024-05-28_13-24-39.610266,"74.49,36.87"
2024-05-28_13-24-39.643156,"49.46,64.53"
2024-05-28_13-24-39.675791,"55.80,75.35"
2024-05-28_13-24-39.708491,"63.01,69.60"
2024-05-28_13-24-39.737287,"54.10,68.26"
2024-05-28_13-24-39.770031,"62.29,78.11"
2024-05-28_13-24-39.802814,"92.82,58.03"
2024-05-28_13-24-39.835574,"65.89,76.51"
2024-05-28_13-24-39.868315,"86.85,75.01"
2024-05-28_13-24-39.901073,"85.96,47.20"
2024-05-28_13-24-39.933770,"70.44,58.06"
2024-05-28_13-24-39.962504,"54.92,73.58"
2024-05-28_13-24-39.995304,"68.51,67.24"
2024-05-28_13-24-40.028124,"55.26,69.88"
2024-05-28_13-24-40.060827,"56.79,70.02"
2024-05-28_13-24-40.093632,"80.23,75.81"
2024-05-28_13-24-40.126325,"65.24,75.13"
2024-05-28_13-24-40.159076,"66.61,67.62"
2024-05-28_13-24-40.187864,"80.82,58.81"
2024-05-28_13-24-40.220600,"68.76,63.97"
2024-05-28_13-24-40.253348,"52.02,62.18"
2024-05-28_13-24-40.286133,"53.07,69.57"
2024-05-28_13-24-40.318853,"61.19,66.57"
2024-05-28_13-24-40.351601,"55.61,69.74"
2024-05-28_13-24-40.384293,"52.13,68.70"
2024-05-28_13-24-40.413131,"81.68,77.78"
2024-05-28_13-24-40.445855,"78.33,73.89"
2024-05-28_13-24-40.478586,"87.43,65.43"
2024-05-28_13-24-40.511372,"87.70,55.65"
2024-05-28_13-24-40.544171,"65.08,61.84"
2024-05-28_13-24-40.576843,"51.23,64.55"
2024-05-28_13-24-40.609558,"53.80,68.84"
2024-05-28_13-24-40.638295,"72.29,67.91"
2024-05-28_13-24-40.671055,"50.09,70.10"
2024-05-28_13-24-40.703876,"81.58,83.34"
2024-05-28_13-24-40.736612,"65.17,61.85"
2024-05-28_13-24-40.769402,"82.43,73.27"
2024-05-28_13-24-40.802199,"101.01,64.52"
2024-05-28_13-24-40.834848,"65.54,59.30"
2024-05-28_13-24-40.863703,"61.52,60.22"
2024-05-28_13-24-40.896338,"54.70,64.46"
2024-05-28_13-24-40.929133,"68.50,71.22"
2024-05-28_13-24-40.961902,"61.01,81.43"
2024-05-28_13-24-40.994668,"90.95,74.13"
2024-05-28_13-24-41.027416,"77.33,74.87"
2024-05-28_13-24-41.060178,"75.23,65.49"
2024-05-28_13-24-41.088897,"92.01,71.92"
2024-05-28_13-24-41.121641,"77.58,62.05"
2024-05-28_13-24-41.154568,"49.31,67.06"
2024-05-28_13-24-41.187155,"50.83,70.52"
2024-05-28_13-24-41.219949,"76.82,67.88"
2024-05-28_13-24-41.252715,"59.44,79.59"
2024-05-28_13-24-41.285446,"81.50,79.94"
2024-05-28_13-24-41.314143,"58.71,67.68"
2024-05-28_13-24-41.346885,"77.63,60.76"
2024-05-28_13-24-41.379667,"99.23,47.18"
2024-05-28_13-24-41.412437,"64.72,62.89"
2024-05-28_13-24-41.445216,"62.47,61.16"
2024-05-28_13-24-41.477942,"56.50,64.28"
2024-05-28_13-24-41.510713,"55.59,71.98"
2024-05-28_13-24-41.539388,"70.63,67.58"
2024-05-28_13-24-41.572155,"52.09,84.64"
2024-05-28_13-24-41.604951,"81.28,78.96"
2024-05-28_13-24-41.637688,"80.55,71.25"
2024-05-28_13-24-41.670455,"75.59,72.62"
2024-05-28_13-24-41.703226,"89.96,64.99"
2024-05-28_13-24-41.735941,"77.07,74.50"
2024-05-28_13-24-41.768681,"64.85,60.19"
2024-05-28_13-24-41.797468,"55.52,64.80"
2024-05-28_13-24-41.830168,"48.28,67.99"
2024-05-28_13-24-41.862944,"65.25,76.47"
2024-05-28_13-24-41.895753,"52.28,70.29"
2024-05-28_13-24-41.928530,"52.82,76.88"
2024-05-28_13-24-41.961240,"87.55,63.41"
2024-05-28_13-24-41.993959,"82.92,74.50"
2024-05-28_13-24-42.022681,"87.81,75.81"
2024-05-28_13-24-42.055439,"52.45,75.86"
2024-05-28_13-24-42.088225,"65.32,58.43"
2024-05-28_13-24-42.121083,"53.81,65.00"
2024-05-28_13-24-42.153760,"59.61,78.55"
2024-05-28_13-24-42.186503,"53.02,71.50"
2024-05-28_13-24-42.219175,"52.65,69.02"
2024-05-28_13-24-42.248024,"79.40,75.30"
2024-05-28_13-24-42.280769,"82.02,64.59"
2024-05-28_13-24-42.313518,"78.20,74.44"
2024-05-28_13-24-42.346282,"91.76,61.77"
2024-05-28_13-24-42.379066,"67.74,70.06"
2024-05-28_13-24-42.411769,"54.47,71.84"
2024-05-28_13-24-42.444478,"58.88,74.50"
2024-05-28_13-24-42.473209,"60.57,67.76"
2024-05-28_13-24-42.506039,"50.39,70.73"
2024-05-28_13-24-42.538769,"59.00,78.56"
2024-05-28_13-24-42.571532,"66.43,71.80"
2024-05-28_13-24-42.604325,"81.04,73.62"
2024-05-28_13-24-42.637143,"88.98,64.54"
2024-05-28_13-24-42.669748,"90.84,55.32"
2024-05-28_13-24-42.698493,"54.99,47.19"
2024-05-28_13-24-42.731270,"52.32,76.19"
2024-05-28_13-24-42.764133,"51.54,69.27"
2024-05-28_13-24-42.796851,"65.68,67.21"
2024-05-28_13-24-42.829565,"57.11,73.31"
2024-05-28_13-24-42.862322,"77.37,84.26"
2024-05-28_13-24-42.895020,"62.84,78.00"
2024-05-28_13-24-42.923745,"83.43,74.89"
2024-05-28_13-24-42.956541,"98.95,65.99"
2024-05-28_13-24-42.989307,"68.78,32.73"
2024-05-28_13-24-43.022128,"50.26,75.04"
2024-05-28_13-24-43.054820,"55.73,66.13"
2024-05-28_13-24-43.087665,"63.52,69.42"
2024-05-28_13-24-43.120264,"58.06,69.04"
2024-05-28_13-24-43.149140,"77.36,84.45"
2024-05-28_13-24-43.181795,"65.38,75.66"
2024-05-28_13-24-43.214558,"69.86,65.84"
2024-05-28_13-24-43.247372,"87.21,74.70"
2024-05-28_13-24-43.280134,"88.31,45.69"
2024-05-28_13-24-43.312852,"68.74,72.21"
2024-05-28_13-24-43.345556,"52.53,70.98"
2024-05-28_13-24-43.374290,"70.33,65.67"
2024-05-28_13-24-43.407085,"60.27,69.58"
2024-05-28_13-24-43.439882,"51.96,69.40"
2024-05-28_13-24-43.472636,"72.10,79.18"
2024-05-28_13-24-43.505388,"64.15,74.47"
2024-05-28_13-24-43.538126,"79.05,67.68"
2024-05-28_13-24-43.570828,"92.59,56.00"
2024-05-28_13-24-43.599587,"81.13,45.56"
2024-05-28_13-24-43.632345,"51.93,63.14"
2024-05-28_13-24-43.665120,"54.40,69.37"
2024-05-28_13-24-43.697939,"70.68,65.55"
2024-05-28_13-24-43.730742,"56.31,69.29"
2024-05-28_13-24-43.763526,"49.76,79.03"
2024-05-28_13-24-43.796171,"75.48,81.01"
2024-05-28_13-24-43.824887,"64.46,74.52"
2024-05-28_13-24-43.857667,"82.29,65.71"
2024-05-28_13-24-43.890434,"99.21,75.13"
2024-05-28_13-24-43.923152,"74.58,41.42"
2024-05-28_13-24-43.956052,"43.68,63.45"
2024-05-28_13-24-43.988760,"54.51,69.21"
2024-05-28_13-24-44.021432,"69.16,66.44"
2024-05-28_13-24-44.050163,"52.75,77.28"
2024-05-28_13-24-44.082886,"51.63,78.18"
2024-05-28_13-24-44.115680,"71.51,64.89"
2024-05-28_13-24-44.148439,"80.83,71.03"
2024-05-28_13-24-44.181215,"76.76,77.03"
2024-05-28_13-24-44.213966,"71.47,57.70"
2024-05-28_13-24-44.246694,"64.62,71.00"
2024-05-28_13-24-44.279387,"60.41,65.34"
2024-05-28_13-24-44.308227,"63.89,69.12"
2024-05-28_13-24-44.340982,"57.20,78.08"
2024-05-28_13-24-44.373692,"77.08,64.34"
2024-05-28_13-24-44.406451,"91.85,76.67"
2024-05-28_13-24-44.439677,"72.77,67.66"
2024-05-28_13-24-44.472596,"92.97,60.61"
2024-05-28_13-24-44.521696,"74.49,55.56"
2024-05-28_13-24-44.534091,"61.49,64.62"
2024-05-28_13-24-44.566255,"51.26,70.90"
2024-05-28_13-24-44.599003,"60.95,65.78"
2024-05-28_13-24-44.631942,"73.38,77.21"
2024-05-28_13-24-44.664549,"49.63,74.80"
2024-05-28_13-24-44.697228,"81.99,84.94"
2024-05-28_13-24-44.729910,"73.96,75.97"
2024-05-28_13-24-44.758713,"82.91,66.68"
2024-05-28_13-24-44.791509,"85.20,40.93"
2024-05-28_13-24-44.824265,"84.80,59.58"
2024-05-28_13-24-44.856962,"53.38,65.09"
2024-05-28_13-24-44.889743,"46.46,69.21"
2024-05-28_13-24-44.922418,"61.32,76.06"
2024-05-28_13-24-44.955177,"68.98,68.96"
2024-05-28_13-24-44.983944,"51.30,74.30"
2024-05-28_13-24-45.016728,"87.75,74.21"
2024-05-28_13-24-45.049465,"71.93,77.30"
2024-05-28_13-24-45.082249,"82.07,41.61"
2024-05-28_13-24-45.115032,"78.47,43.17"
2024-05-28_13-24-45.147769,"75.42,64.12"
2024-05-28_13-24-45.180523,"55.65,65.04"
2024-05-28_13-24-45.209356,"56.12,78.63"
2024-05-28_13-24-45.243079,"66.37,71.83"
2024-05-28_13-24-45.274816,"56.76,69.76"
2024-05-28_13-24-45.307548,"64.53,76.56"
2024-05-28_13-24-45.340260,"82.07,68.75"
2024-05-28_13-24-45.373090,"70.08,76.75"
2024-05-28_13-24-45.405750,"88.57,62.11"
2024-05-28_13-24-45.434528,"85.63,62.54"
2024-05-28_13-24-45.467249,"60.54,55.98"
2024-05-28_13-24-45.500085,"57.91,74.68"
2024-05-28_13-24-45.532898,"56.96,66.71"
2024-05-28_13-24-45.565606,"59.84,72.79"
2024-05-28_13-24-45.598279,"56.32,79.35"
2024-05-28_13-24-45.632680,"80.56,74.55"
2024-05-28_13-24-45.660159,"74.99,75.30"
2024-05-28_13-24-45.692666,"82.58,64.44"
2024-05-28_13-24-45.725303,"90.37,57.79"
2024-05-28_13-24-45.758100,"69.31,46.71"
2024-05-28_13-24-45.790839,"53.58,76.71"
2024-05-28_13-24-45.823524,"53.49,70.53"
2024-05-28_13-24-45.856381,"65.01,66.61"
2024-05-28_13-24-45.885148,"56.96,74.61"
2024-05-28_13-24-45.917816,"86.80,72.92"
2024-05-28_13-24-45.950610,"57.01,79.09"
2024-05-28_13-24-45.983358,"77.76,77.05"
2024-05-28_13-24-46.016089,"98.24,47.22"
2024-05-28_13-24-46.048846,"66.05,57.08"
2024-05-28_13-24-46.081539,"51.82,75.27"
2024-05-28_13-24-46.110294,"58.28,66.87"
2024-05-28_13-24-46.143092,"54.12,70.59"
2024-05-28_13-24-46.175866,"76.53,68.03"
2024-05-28_13-24-46.208617,"72.77,84.96"
2024-05-28_13-24-46.241359,"85.70,71.65"
2024-05-28_13-24-46.274118,"61.93,68.54"
2024-05-28_13-24-46.307191,"81.19,60.69"
2024-05-28_13-24-46.335599,"93.66,56.62"
2024-05-28_13-24-46.368303,"67.72,50.95"
2024-05-28_13-24-46.401155,"53.92,73.19"
2024-05-28_13-24-46.433855,"56.76,64.72"
2024-05-28_13-24-46.466660,"53.78,70.95"
2024-05-28_13-24-46.499473,"65.88,68.60"
2024-05-28_13-24-46.532172,"69.20,86.05"
2024-05-28_13-24-46.560777,"73.75,76.90"
2024-05-28_13-24-46.593661,"76.69,68.07"
2024-05-28_13-24-46.626416,"90.06,34.27"
2024-05-28_13-24-46.659173,"74.51,63.27"
2024-05-28_13-24-46.691951,"52.23,64.43"
2024-05-28_13-24-46.724727,"52.36,71.18"
2024-05-28_13-24-46.757416,"61.70,65.94"
2024-05-28_13-24-46.790072,"63.09,71.05"
2024-05-28_13-24-46.818857,"50.15,88.36"
2024-05-28_13-24-46.851622,"79.92,67.13"
2024-05-28_13-24-46.884374,"73.06,75.78"
2024-05-28_13-24-46.917168,"88.83,48.95"
2024-05-28_13-24-46.949888,"80.07,59.77"
2024-05-28_13-24-46.982706,"67.51,61.08"
2024-05-28_13-24-47.015378,"54.52,64.52"
2024-05-28_13-24-47.044125,"52.98,71.40"
2024-05-28_13-24-47.076892,"73.45,66.28"
2024-05-28_13-24-47.109665,"72.74,74.30"
2024-05-28_13-24-47.142457,"74.98,79.46"
2024-05-28_13-24-47.175217,"63.80,51.35"
2024-05-28_13-24-47.207944,"84.41,36.36"
2024-05-28_13-24-47.240645,"64.52,76.96"
2024-05-28_13-24-47.269419,"52.15,68.32"
2024-05-28_13-24-47.310114,"54.63,71.30"
2024-05-28_13-24-47.334998,"64.69,68.01"
2024-05-28_13-24-47.367701,"53.01,72.46"
2024-05-28_13-24-47.400458,"82.15,81.08"
2024-05-28_13-24-47.433246,"81.69,79.15"
2024-05-28_13-24-47.465936,"70.58,61.94"
2024-05-28_13-24-47.494689,"76.80,50.61"
2024-05-28_13-24-47.527454,"84.34,61.23"
2024-05-28_13-24-47.560243,"72.26,53.94"
2024-05-28_13-24-47.592961,"52.42,64.45"
2024-05-28_13-24-47.625729,"53.26,71.93"
2024-05-28_13-24-47.658497,"63.86,66.47"
2024-05-28_13-24-47.691170,"70.63,77.71"
2024-05-28_13-24-47.719976,"56.45,76.02"
2024-05-28_13-24-47.752705,"82.38,62.48"
2024-05-28_13-24-47.785442,"72.56,76.84"
2024-05-28_13-24-47.818211,"75.94,67.98"
2024-05-28_13-24-47.851071,"86.79,42.05"
2024-05-28_13-24-47.883724,"72.62,58.58"
2024-05-28_13-24-47.916456,"51.34,65.34"
2024-05-28_13-24-47.945194,"43.95,69.87"
2024-05-28_13-24-47.977978,"61.65,75.77"
2024-05-28_13-24-48.010871,"66.07,68.19"
2024-05-28_13-24-48.043558,"54.08,74.32"
2024-05-28_13-24-48.076273,"79.79,76.28"
2024-05-28_13-24-48.109087,"69.59,80.40"
2024-05-28_13-24-48.141744,"76.33,42.09"
2024-05-28_13-24-48.170474,"91.08,45.14"
2024-05-28_13-24-48.203246,"66.16,38.03"
2024-05-28_13-24-48.236066,"55.52,65.52"
2024-05-28_13-24-48.269141,"55.62,79.91"
2024-05-28_13-24-48.301963,"53.25,71.89"
2024-05-28_13-24-48.334290,"77.24,68.74"
2024-05-28_13-24-48.367018,"54.76,78.88"
2024-05-28_13-24-48.395747,"93.37,62.95"
2024-05-28_13-24-48.428482,"59.91,79.47"
2024-05-28_13-24-48.461255,"81.86,62.09"
2024-05-28_13-24-48.494047,"90.14,46.33"
2024-05-28_13-24-48.526817,"63.24,62.62"
2024-05-28_13-24-48.559563,"54.84,75.69"
2024-05-28_13-24-48.592316,"57.04,66.20"
2024-05-28_13-24-48.621052,"52.92,72.59"
2024-05-28_13-24-48.653785,"70.62,69.48"
2024-05-28_13-24-48.686540,"65.18,72.28"
2024-05-28_13-24-48.719326,"82.25,77.18"
2024-05-28_13-24-48.752097,"69.10,66.12"
2024-05-28_13-24-48.784853,"84.18,38.81"
2024-05-28_13-24-48.817558,"80.17,45.06"
2024-05-28_13-24-48.846249,"53.90,62.84"
2024-05-28_13-24-48.879059,"52.30,71.63"
2024-05-28_13-24-48.911823,"58.60,65.43"
2024-05-28_13-24-48.944587,"66.76,73.64"
2024-05-28_13-24-48.977381,"59.57,70.20"
2024-05-28_13-24-49.010109,"80.40,84.79"
2024-05-28_13-24-49.042822,"73.16,76.53"
2024-05-28_13-24-49.071550,"81.70,49.46"
2024-05-28_13-24-49.104302,"83.30,34.53"
2024-05-28_13-24-49.137131,"84.52,63.91"
2024-05-28_13-24-49.169930,"52.76,64.69"
2024-05-28_13-24-49.202751,"53.82,70.82"
2024-05-28_13-24-49.235443,"60.47,66.90"
2024-05-28_13-24-49.268217,"74.55,63.09"
2024-05-28_13-24-49.297044,"51.38,85.07"
2024-05-28_13-24-49.329607,"79.89,66.10"
2024-05-28_13-24-49.362425,"74.83,61.29"
2024-05-28_13-24-49.443482,"90.97,48.05"
2024-05-28_13-24-49.443875,"75.10,52.52"
2024-05-28_13-24-49.460697,"69.16,75.26"
2024-05-28_13-24-49.493338,"55.88,64.46"
2024-05-28_13-24-49.522099,"54.03,70.48"
2024-05-28_13-24-49.554891,"73.00,67.52"
2024-05-28_13-24-49.587744,"50.96,85.63"
2024-05-28_13-24-49.620404,"81.97,80.04"
2024-05-28_13-24-49.653201,"62.57,70.41"
2024-05-28_13-24-49.686087,"76.30,58.03"
2024-05-28_13-24-49.718649,"92.59,56.38"
2024-05-28_13-24-49.747354,"57.19,56.73"
2024-05-28_13-24-49.780156,"51.24,72.45"
2024-05-28_13-24-49.812898,"59.41,65.18"
2024-05-28_13-24-49.845651,"50.22,69.62"
2024-05-28_13-24-49.878384,"65.57,78.97"
2024-05-28_13-24-49.911175,"48.90,72.61"
2024-05-28_13-24-49.943885,"91.57,78.74"
2024-05-28_13-24-49.976599,"68.07,69.88"
2024-05-28_13-24-50.005389,"82.40,41.65"
2024-05-28_13-24-50.038159,"96.97,50.25"
2024-05-28_13-24-50.070908,"52.80,47.02"
2024-05-28_13-24-50.103677,"50.98,71.37"
2024-05-28_13-24-50.136432,"59.80,65.08"
2024-05-28_13-24-50.169193,"68.44,76.37"
2024-05-28_13-24-50.201858,"56.26,74.73"
2024-05-28_13-24-50.230727,"68.41,75.03"
2024-05-28_13-24-50.263412,"60.92,77.02"
2024-05-28_13-24-50.296248,"70.76,72.55"
2024-05-28_13-24-50.328990,"81.95,63.30"
2024-05-28_13-24-50.361731,"85.67,51.69"
2024-05-28_13-24-50.394492,"59.72,48.14"
2024-05-28_13-24-50.427148,"43.04,69.64"
2024-05-28_13-24-50.455914,"60.95,74.98"
2024-05-28_13-24-50.488889,"68.48,69.37"
2024-05-28_13-24-50.521494,"58.70,73.11"
2024-05-28_13-24-50.554236,"55.80,72.80"
2024-05-28_13-24-50.586982,"75.47,81.67"
2024-05-28_13-24-50.619748,"73.65,61.23"
2024-05-28_13-24-50.652382,"83.03,44.67"
2024-05-28_13-24-50.681185,"95.91,53.85"
2024-05-28_13-24-50.713948,"63.96,66.36"
2024-05-28_13-24-50.746733,"53.59,75.35"
2024-05-28_13-24-50.779526,"52.66,71.46"
2024-05-28_13-24-50.812287,"69.60,67.31"
2024-05-28_13-24-50.845095,"56.55,75.77"
2024-05-28_13-24-50.877677,"86.51,69.84"
2024-05-28_13-24-50.906468,"56.56,79.98"
2024-05-28_13-24-50.939218,"75.59,77.27"
2024-05-28_13-24-50.972122,"89.98,46.67"
2024-05-28_13-24-51.004761,"67.08,58.84"
2024-05-28_13-24-51.037650,"52.49,76.04"
2024-05-28_13-24-51.070284,"54.14,65.74"
2024-05-28_13-24-51.103053,"54.14,71.65"
2024-05-28_13-24-51.131764,"67.29,68.50"
2024-05-28_13-24-51.164506,"48.81,80.21"
2024-05-28_13-24-51.197277,"81.80,79.59"
2024-05-28_13-24-51.230043,"57.94,68.89"
2024-05-28_13-24-51.262809,"76.58,60.15"
2024-05-28_13-24-51.295731,"79.29,67.09"
2024-05-28_13-24-51.328902,"62.70,79.87"
2024-05-28_13-24-51.357088,"50.81,71.08"
2024-05-28_13-24-51.389781,"58.03,65.81"
2024-05-28_13-24-51.422517,"54.71,71.13"
2024-05-28_13-24-51.455344,"71.55,67.82"
2024-05-28_13-24-51.488138,"78.94,82.34"
2024-05-28_13-24-51.520833,"76.07,78.99"
2024-05-28_13-24-51.553567,"65.63,67.85"
2024-05-28_13-24-51.582329,"83.25,57.63"
2024-05-28_13-24-51.615109,"78.98,46.89"
2024-05-28_13-24-51.647842,"49.41,63.50"
2024-05-28_13-24-51.680583,"50.95,70.56"
2024-05-28_13-24-51.713361,"63.00,66.10"
2024-05-28_13-24-51.746114,"60.78,69.88"
2024-05-28_13-24-51.778799,"55.79,79.60"
2024-05-28_13-24-51.807541,"71.14,73.93"
2024-05-28_13-24-51.840359,"74.14,75.50"
2024-05-28_13-24-51.873089,"74.05,67.44"
2024-05-28_13-24-51.905828,"95.88,40.87"
2024-05-28_13-24-51.938604,"87.20,59.52"
2024-05-28_13-24-51.971356,"47.10,63.99"
2024-05-28_13-24-52.004082,"52.12,70.44"
2024-05-28_13-24-52.032771,"63.56,66.06"
2024-05-28_13-24-52.065581,"72.55,77.48"
2024-05-28_13-24-52.098866,"50.09,74.69"
2024-05-28_13-24-52.131126,"69.42,65.46"
2024-05-28_13-24-52.163877,"70.83,73.85"
2024-05-28_13-24-52.196594,"82.87,66.94"
2024-05-28_13-24-52.229304,"86.48,66.28"
2024-05-28_13-24-52.258059,"74.62,61.30"
2024-05-28_13-24-52.290832,"55.20,67.17"
2024-05-28_13-24-52.323617,"48.49,71.73"
2024-05-28_13-24-52.356381,"61.88,75.35"
2024-05-28_13-24-52.389194,"71.10,69.03"
2024-05-28_13-24-52.421895,"51.03,74.10"
2024-05-28_13-24-52.454623,"71.99,75.96"
2024-05-28_13-24-52.483387,"70.70,78.21"
2024-05-28_13-24-52.516099,"81.99,62.31"
2024-05-28_13-24-52.548912,"84.47,70.31"
2024-05-28_13-24-52.581656,"75.88,59.58"
2024-05-28_13-24-52.614421,"56.71,65.57"
2024-05-28_13-24-52.647199,"56.13,74.82"
2024-05-28_13-24-52.679917,"51.53,71.21"
2024-05-28_13-24-52.708610,"73.00,68.57"
2024-05-28_13-24-52.741405,"56.27,72.06"
2024-05-28_13-24-52.774171,"107.98,66.28"
2024-05-28_13-24-52.806906,"61.36,79.14"
2024-05-28_13-24-52.839700,"79.82,61.61"
2024-05-28_13-24-52.872453,"90.60,46.51"
2024-05-28_13-24-52.905158,"68.50,57.06"
2024-05-28_13-24-52.933862,"56.98,75.53"
2024-05-28_13-24-52.966712,"57.16,65.93"
2024-05-28_13-24-52.999414,"53.46,71.57"
2024-05-28_13-24-53.032244,"66.61,68.64"
2024-05-28_13-24-53.064896,"63.70,83.70"
2024-05-28_13-24-53.097720,"80.11,76.17"
2024-05-28_13-24-53.130440,"65.37,67.46"
2024-05-28_13-24-53.159166,"82.61,38.82"
2024-05-28_13-24-53.191894,"100.36,62.28"
2024-05-28_13-24-53.224700,"53.86,63.27"
2024-05-28_13-24-53.257433,"51.44,73.15"
2024-05-28_13-24-53.290211,"60.21,65.99"
2024-05-28_13-24-53.323019,"62.29,74.67"
2024-05-28_13-24-53.355679,"58.61,70.64"
2024-05-28_13-24-53.384460,"80.65,85.64"
2024-05-28_13-24-53.417195,"74.21,77.32"
2024-05-28_13-24-53.449964,"75.43,48.43"
2024-05-28_13-24-53.482718,"80.15,63.95"
2024-05-28_13-24-53.515497,"62.29,62.88"
2024-05-28_13-24-53.548272,"50.51,65.03"
2024-05-28_13-24-53.580928,"52.15,70.09"
2024-05-28_13-24-53.609696,"62.76,66.40"
2024-05-28_13-24-53.642482,"62.52,72.23"
2024-05-28_13-24-53.675241,"50.94,83.47"
2024-05-28_13-24-53.707997,"77.61,75.29"
2024-05-28_13-24-53.740756,"73.08,60.20"
2024-05-28_13-24-53.773513,"85.19,47.93"
2024-05-28_13-24-53.806271,"88.64,60.64"
2024-05-28_13-24-53.834936,"66.99,60.14"
2024-05-28_13-24-53.867713,"52.81,64.97"
2024-05-28_13-24-53.900539,"53.20,70.02"
2024-05-28_13-24-53.933231,"74.79,67.20"
2024-05-28_13-24-53.966082,"59.20,79.18"
2024-05-28_13-24-53.998787,"68.05,77.34"
2024-05-28_13-24-54.031487,"79.50,72.35"
2024-05-28_13-24-54.064241,"76.60,74.20"
2024-05-28_13-24-54.093061,"90.90,61.55"
2024-05-28_13-24-54.125774,"71.33,58.70"
2024-05-28_13-24-54.158563,"49.74,72.98"
2024-05-28_13-24-54.191309,"60.56,66.06"
2024-05-28_13-24-54.224064,"49.12,69.20"
2024-05-28_13-24-54.256813,"67.82,78.36"
2024-05-28_13-24-54.289508,"53.00,76.04"
2024-05-28_13-24-54.318443,"78.83,79.26"
2024-05-28_13-24-54.351088,"66.54,57.92"
2024-05-28_13-24-54.383808,"84.11,63.14"
2024-05-28_13-24-54.416636,"98.12,58.90"
2024-05-28_13-24-54.449322,"64.03,45.72"
2024-05-28_13-24-54.482039,"51.79,72.22"
2024-05-28_13-24-54.514714,"60.30,64.92"
2024-05-28_13-24-54.543592,"69.76,77.76"
2024-05-28_13-24-54.576316,"59.29,73.95"
2024-05-28_13-24-54.609066,"51.72,74.05"
2024-05-28_13-24-54.641842,"77.05,76.95"
2024-05-28_13-24-54.674635,"77.68,68.52"
2024-05-28_13-24-54.707327,"82.21,61.60"
2024-05-28_13-24-54.740012,"97.28,56.01"
2024-05-28_13-24-54.768893,"64.23,66.62"
2024-05-28_13-24-54.801640,"43.36,69.71"
2024-05-28_13-24-54.834334,"60.07,75.89"
2024-05-28_13-24-54.867203,"68.62,68.66"
2024-05-28_13-24-54.899980,"54.49,72.35"
2024-05-28_13-24-54.932642,"83.56,87.24"
2024-05-28_13-24-54.965277,"73.68,81.50"
2024-05-28_13-24-54.994063,"75.80,75.86"
2024-05-28_13-24-55.026839,"84.62,43.93"
2024-05-28_13-24-55.059784,"74.22,57.21"
2024-05-28_13-24-55.092426,"65.62,66.27"
2024-05-28_13-24-55.125155,"52.30,75.01"
2024-05-28_13-24-55.157904,"52.81,70.76"
2024-05-28_13-24-55.190583,"64.36,68.04"
2024-05-28_13-24-55.219300,"54.20,75.73"
2024-05-28_13-24-55.252117,"85.13,68.43"
2024-05-28_13-24-55.284905,"58.05,79.54"
2024-05-28_13-24-55.317646,"76.74,74.83"
2024-05-28_13-24-55.350464,"77.50,68.73"
2024-05-28_13-24-55.383133,"64.63,64.33"
2024-05-28_13-24-55.415839,"51.05,75.09"
2024-05-28_13-24-55.444635,"55.46,65.95"
2024-05-28_13-24-55.477363,"54.78,70.50"
2024-05-28_13-24-55.510142,"74.29,67.76"
2024-05-28_13-24-55.542913,"50.21,80.01"
2024-05-28_13-24-55.575691,"80.64,79.90"
2024-05-28_13-24-55.608400,"61.93,65.83"
2024-05-28_13-24-55.641191,"80.61,75.02"
2024-05-28_13-24-55.669895,"83.94,62.81"
2024-05-28_13-24-55.702622,"65.40,49.52"
2024-05-28_13-24-55.735402,"50.12,72.26"
2024-05-28_13-24-55.768179,"59.36,65.67"
2024-05-28_13-24-55.800921,"53.14,70.16"
2024-05-28_13-24-55.833717,"62.89,67.81"
2024-05-28_13-24-55.866404,"76.12,79.96"
2024-05-28_13-24-55.895139,"77.06,75.48"
2024-05-28_13-24-55.927909,"70.01,67.05"
2024-05-28_13-24-55.960677,"90.82,72.76"
2024-05-28_13-24-55.993453,"81.17,63.87"
2024-05-28_13-24-56.026204,"47.69,63.14"
2024-05-28_13-24-56.058966,"51.29,70.70"
2024-05-28_13-24-56.091674,"62.53,65.73"
2024-05-28_13-24-56.120401,"71.71,70.39"
2024-05-28_13-24-56.153171,"50.79,77.96"
2024-05-28_13-24-56.185946,"70.00,72.94"
2024-05-28_13-24-56.218711,"77.28,74.13"
2024-05-28_13-24-56.251500,"75.32,66.82"
2024-05-28_13-24-56.284203,"97.48,61.45"
2024-05-28_13-24-56.316894,"58.41,75.44"
2024-05-28_13-24-56.345664,"49.33,66.11"
2024-05-28_13-24-56.378409,"51.45,70.10"
2024-05-28_13-24-56.411187,"59.28,65.74"
2024-05-28_13-24-56.443938,"71.34,76.72"
2024-05-28_13-24-56.476702,"48.88,72.78"
2024-05-28_13-24-56.509507,"70.29,77.07"
2024-05-28_13-24-56.542229,"73.52,72.81"
2024-05-28_13-24-56.570928,"83.04,66.99"
2024-05-28_13-24-56.603719,"92.72,59.99"
2024-05-28_13-24-56.636461,"77.14,59.64"
2024-05-28_13-24-56.669275,"53.07,65.33"
2024-05-28_13-24-56.702102,"44.52,68.78"
2024-05-28_13-24-56.734809,"61.66,75.53"
2024-05-28_13-24-56.767539,"71.29,69.17"
2024-05-28_13-24-56.800155,"49.34,81.24"
2024-05-28_13-24-56.828990,"91.83,66.41"
2024-05-28_13-24-56.861757,"71.99,77.45"
2024-05-28_13-24-56.894490,"79.69,61.18"
2024-05-28_13-24-56.927246,"85.93,64.42"
2024-05-28_13-24-56.960040,"76.44,59.00"
2024-05-28_13-24-56.992833,"53.54,64.91"
2024-05-28_13-24-57.025489,"56.45,75.31"
2024-05-28_13-24-57.054268,"51.46,70.97"
2024-05-28_13-24-57.087063,"71.46,67.47"
2024-05-28_13-24-57.119747,"56.62,72.43"
2024-05-28_13-24-57.152581,"87.32,64.33"
2024-05-28_13-24-57.185292,"58.91,76.89"
2024-05-28_13-24-57.218065,"81.03,61.78"
2024-05-28_13-24-57.250690,"88.25,62.97"
2024-05-28_13-24-57.279554,"70.15,56.86"
2024-05-28_13-24-57.312340,"52.76,75.54"
2024-05-28_13-24-57.347351,"56.85,66.26"
2024-05-28_13-24-57.377937,"66.65,74.89"
2024-05-28_13-24-57.410622,"65.87,69.53"
2024-05-28_13-24-57.443307,"63.45,82.96"
2024-05-28_13-24-57.475991,"82.75,75.44"
2024-05-28_13-24-57.504791,"62.26,66.15"
2024-05-28_13-24-57.537538,"82.64,60.55"
2024-05-28_13-24-57.570305,"97.31,62.36"
2024-05-28_13-24-57.603075,"65.20,63.40"
2024-05-28_13-24-57.635844,"49.87,72.32"
2024-05-28_13-24-57.668570,"57.83,64.71"
2024-05-28_13-24-57.701350,"53.95,71.03"
2024-05-28_13-24-57.730039,"68.42,68.72"
2024-05-28_13-24-57.762884,"71.37,81.52"
2024-05-28_13-24-57.795584,"76.60,75.73"
2024-05-28_13-24-57.828374,"68.60,68.60"
2024-05-28_13-24-57.861128,"83.74,57.71"
2024-05-28_13-24-57.893845,"90.87,61.87"
2024-05-28_13-24-57.926585,"65.05,64.99"
2024-05-28_13-24-57.955321,"50.07,70.80"
2024-05-28_13-24-57.988148,"61.11,65.62"
2024-05-28_13-24-58.020886,"62.95,69.91"
2024-05-28_13-24-58.053637,"60.56,78.77"
2024-05-28_13-24-58.086415,"72.22,77.91"
2024-05-28_13-24-58.119139,"75.98,75.68"
2024-05-28_13-24-58.151829,"69.38,68.97"
2024-05-28_13-24-58.180542,"84.84,60.99"
2024-05-28_13-24-58.213348,"94.62,63.14"
2024-05-28_13-24-58.246110,"61.36,65.31"
2024-05-28_13-24-58.278904,"50.26,70.59"
2024-05-28_13-24-58.311664,"60.36,65.33"
2024-05-28_13-24-58.344446,"68.33,77.10"
2024-05-28_13-24-58.377106,"74.28,77.91"
2024-05-28_13-24-58.405879,"47.97,79.24"
2024-05-28_13-24-58.438600,"84.26,67.54"
2024-05-28_13-24-58.471379,"74.97,69.51"
2024-05-28_13-24-58.504146,"82.80,61.94"
2024-05-28_13-24-58.536926,"73.94,77.67"
2024-05-28_13-24-58.569682,"61.77,66.38"
2024-05-28_13-24-58.602365,"44.84,69.77"
2024-05-28_13-24-58.631101,"63.39,76.00"
2024-05-28_13-24-58.663921,"67.43,67.85"
2024-05-28_13-24-58.696618,"55.26,72.61"
2024-05-28_13-24-58.729400,"57.28,73.21"
2024-05-28_13-24-58.762203,"87.20,81.18"
2024-05-28_13-24-58.794982,"75.30,61.99"
2024-05-28_13-24-58.827714,"88.62,45.61"
2024-05-28_13-24-58.856400,"85.96,74.48"
2024-05-28_13-24-58.889147,"61.88,48.35"
2024-05-28_13-24-58.921946,"56.32,76.83"
2024-05-28_13-24-58.954703,"53.50,71.11"
2024-05-28_13-24-58.987470,"67.50,66.57"
2024-05-28_13-24-59.020266,"58.93,73.11"
2024-05-28_13-24-59.052915,"51.82,72.23"
2024-05-28_13-24-59.081645,"75.76,82.71"
2024-05-28_13-24-59.114410,"75.24,77.13"
2024-05-28_13-24-59.147209,"90.74,48.28"
2024-05-28_13-24-59.180031,"78.90,74.89"
2024-05-28_13-24-59.212727,"62.53,77.41"
2024-05-28_13-24-59.245486,"55.25,65.83"
2024-05-28_13-24-59.278237,"53.08,71.55"
2024-05-28_13-24-59.306956,"71.90,67.13"
2024-05-28_13-24-59.339688,"53.36,71.90"
2024-05-28_13-24-59.372485,"60.71,89.84"
2024-05-28_13-24-59.405204,"69.22,76.34"
2024-05-28_13-24-59.438051,"76.69,76.57"
2024-05-28_13-24-59.470762,"88.94,48.12"
2024-05-28_13-24-59.503469,"90.38,57.97"
2024-05-28_13-24-59.532359,"66.86,60.54"
2024-05-28_13-24-59.565047,"53.47,65.06"
2024-05-28_13-24-59.597797,"52.52,70.74"
2024-05-28_13-24-59.630513,"74.50,66.49"
2024-05-28_13-24-59.663288,"54.91,80.91"
2024-05-28_13-24-59.696025,"68.79,81.87"
2024-05-28_13-24-59.728815,"83.10,65.52"
2024-05-28_13-24-59.761500,"73.27,58.38"
2024-05-28_13-24-59.790216,"87.40,47.89"
2024-05-28_13-24-59.823083,"89.14,59.66"
2024-05-28_13-24-59.855777,"64.59,60.38"
2024-05-28_13-24-59.888562,"58.18,65.70"
2024-05-28_13-24-59.921297,"48.87,69.73"
2024-05-28_13-24-59.954079,"73.52,78.40"
2024-05-28_13-24-59.986757,"56.97,70.90"
2024-05-28_13-25-00.015540,"68.65,83.41"
2024-05-28_13-25-00.048300,"86.21,65.84"
2024-05-28_13-25-00.081111,"74.44,78.06"
2024-05-28_13-25-00.113802,"81.68,41.83"
2024-05-28_13-25-00.146570,"76.46,63.96"
2024-05-28_13-25-00.179256,"63.69,60.38"
2024-05-28_13-25-00.211987,"57.99,65.72"
2024-05-28_13-25-00.240780,"56.91,75.46"
2024-05-28_13-25-00.273547,"52.65,73.13"
2024-05-28_13-25-00.306283,"66.23,69.28"
2024-05-28_13-25-00.339116,"56.47,81.44"
2024-05-28_13-25-00.371851,"89.70,68.14"
2024-05-28_13-25-00.404603,"58.98,80.09"
2024-05-28_13-25-00.437304,"71.82,75.29"
2024-05-28_13-25-00.466021,"66.30,51.14"
2024-05-28_13-25-00.498827,"64.95,46.32"
2024-05-28_13-25-00.531622,"56.10,75.11"
2024-05-28_13-25-00.564372,"57.81,67.27"
2024-05-28_13-25-00.597247,"54.31,72.13"
2024-05-28_13-25-00.629846,"72.99,68.13"
2024-05-28_13-25-00.662548,"51.34,82.09"
2024-05-28_13-25-00.691325,"90.00,81.86"
2024-05-28_13-25-00.724091,"61.77,66.66"
2024-05-28_13-25-00.756863,"79.68,39.39"
2024-05-28_13-25-00.789619,"84.79,63.17"
2024-05-28_13-25-00.822425,"75.92,50.09"
2024-05-28_13-25-00.855149,"51.44,73.02"
2024-05-28_13-25-00.887829,"57.82,65.54"
2024-05-28_13-25-00.916677,"54.17,71.53"
2024-05-28_13-25-00.949380,"72.91,69.04"
2024-05-28_13-25-00.982181,"49.56,87.75"
2024-05-28_13-25-01.014940,"96.85,68.70"
2024-05-28_13-25-01.047634,"63.41,69.96"
2024-05-28_13-25-01.080419,"80.73,58.36"
2024-05-28_13-25-01.113121,"95.82,57.46"
2024-05-28_13-25-01.141852,"55.99,56.43"
2024-05-28_13-25-01.174607,"67.90,74.01"
2024-05-28_13-25-01.207472,"61.81,66.28"
2024-05-28_13-25-01.240203,"48.74,69.50"
2024-05-28_13-25-01.272933,"70.62,77.21"
2024-05-28_13-25-01.305644,"55.44,71.79"
2024-05-28_13-25-01.338457,"67.99,76.97"
2024-05-28_13-25-01.367134,"83.15,71.72"
2024-05-28_13-25-01.399927,"79.70,63.49"
2024-05-28_13-25-01.432720,"58.47,76.47"
2024-05-28_13-25-01.465535,"71.54,66.88"
2024-05-28_13-25-01.498224,"73.21,59.51"
2024-05-28_13-25-01.530956,"59.30,64.86"
2024-05-28_13-25-01.563712,"57.15,76.01"
2024-05-28_13-25-01.592478,"69.34,73.21"
2024-05-28_13-25-01.625179,"57.16,69.28"
2024-05-28_13-25-01.657917,"74.89,84.10"
2024-05-28_13-25-01.690681,"92.40,66.75"
2024-05-28_13-25-01.723452,"64.05,63.47"
2024-05-28_13-25-01.756253,"81.66,42.64"
2024-05-28_13-25-01.788930,"81.83,68.79"
2024-05-28_13-25-01.817658,"69.93,56.80"
2024-05-28_13-25-01.850641,"56.04,75.11"
2024-05-28_13-25-01.883242,"58.20,66.78"
2024-05-28_13-25-01.916001,"52.68,72.82"
2024-05-28_13-25-01.948715,"67.24,68.54"
2024-05-28_13-25-01.981500,"51.95,82.18"
2024-05-28_13-25-02.014219,"89.58,79.61"
2024-05-28_13-25-02.042929,"59.81,66.10"
2024-05-28_13-25-02.075802,"79.82,39.97"
2024-05-28_13-25-02.108479,"96.32,63.37"
2024-05-28_13-25-02.141306,"63.32,49.27"
2024-05-28_13-25-02.174070,"52.36,73.00"
2024-05-28_13-25-02.206774,"57.34,65.05"
2024-05-28_13-25-02.239466,"54.15,72.88"
2024-05-28_13-25-02.268194,"76.69,67.86"
2024-05-28_13-25-02.300990,"48.75,91.16"
2024-05-28_13-25-02.333766,"87.09,69.38"
2024-05-28_13-25-02.366500,"63.88,70.84"
2024-05-28_13-25-02.399274,"79.17,58.31"
2024-05-28_13-25-02.432121,"70.51,78.92"
2024-05-28_13-25-02.464772,"54.09,62.47"
2024-05-28_13-25-02.493522,"67.66,71.94"
2024-05-28_13-25-02.526220,"59.91,66.50"
2024-05-28_13-25-02.559066,"50.14,70.45"
2024-05-28_13-25-02.591787,"66.06,77.85"
2024-05-28_13-25-02.624561,"50.01,72.58"
2024-05-28_13-25-02.657339,"68.33,77.64"
2024-05-28_13-25-02.690022,"69.42,72.03"
2024-05-28_13-25-02.722931,"81.32,61.98"
2024-05-28_13-25-02.751538,"88.59,65.03"
2024-05-28_13-25-02.784358,"56.68,60.81"
2024-05-28_13-25-02.817039,"64.74,73.81"
2024-05-28_13-25-02.849811,"60.13,65.49"
2024-05-28_13-25-02.882636,"57.08,76.27"
2024-05-28_13-25-02.915335,"64.69,74.51"
2024-05-28_13-25-02.948099,"55.09,70.15"
2024-05-28_13-25-02.976764,"77.45,76.90"
2024-05-28_13-25-03.009585,"80.34,69.04"
2024-05-28_13-25-03.042367,"73.09,44.00"
2024-05-28_13-25-03.075174,"86.14,42.28"
2024-05-28_13-25-03.107856,"80.50,67.50"
2024-05-28_13-25-03.140603,"64.50,57.43"
2024-05-28_13-25-03.173259,"58.21,75.37"
2024-05-28_13-25-03.202113,"57.76,66.60"
2024-05-28_13-25-03.234896,"69.69,73.67"
2024-05-28_13-25-03.267667,"65.14,70.12"
2024-05-28_13-25-03.300404,"51.60,81.32"
2024-05-28_13-25-03.333604,"87.88,79.18"
2024-05-28_13-25-03.365815,"64.03,49.24"
2024-05-28_13-25-03.398534,"81.33,39.55"
2024-05-28_13-25-03.427317,"81.55,72.00"
2024-05-28_13-25-03.460093,"49.14,78.44"
2024-05-28_13-25-03.492856,"52.61,73.94"
2024-05-28_13-25-03.525602,"58.75,66.43"
2024-05-28_13-25-03.558367,"55.82,72.13"
2024-05-28_13-25-03.591120,"71.20,68.03"
2024-05-28_13-25-03.623857,"50.77,85.00"
2024-05-28_13-25-03.652583,"92.63,73.07"
2024-05-28_13-25-03.685370,"64.39,69.34"
2024-05-28_13-25-03.718108,"80.62,36.25"
2024-05-28_13-25-03.750925,"86.80,55.43"
2024-05-28_13-25-03.783680,"71.90,54.14"
2024-05-28_13-25-03.816502,"51.39,73.28"
2024-05-28_13-25-03.849145,"62.69,66.48"
2024-05-28_13-25-03.877846,"48.63,69.70"
2024-05-28_13-25-03.910623,"66.95,77.87"
2024-05-28_13-25-03.943414,"51.33,72.32"
2024-05-28_13-25-03.976173,"68.21,76.74"
2024-05-28_13-25-04.008923,"83.22,73.01"
2024-05-28_13-25-04.041702,"80.48,63.27"
2024-05-28_13-25-04.074367,"86.19,41.00"
2024-05-28_13-25-04.103110,"75.44,52.46"
2024-05-28_13-25-04.135879,"60.01,59.05"
2024-05-28_13-25-04.168666,"60.57,65.65"
2024-05-28_13-25-04.201399,"57.09,75.16"
2024-05-28_13-25-04.234184,"66.41,72.78"
2024-05-28_13-25-04.266996,"61.78,69.72"
2024-05-28_13-25-04.299671,"74.75,82.63"
2024-05-28_13-25-04.328399,"90.97,66.19"
2024-05-28_13-25-04.361164,"61.21,78.93"
2024-05-28_13-25-04.393934,"80.51,42.02"
2024-05-28_13-25-04.426708,"89.38,46.76"
2024-05-28_13-25-04.459452,"42.09,74.41"
2024-05-28_13-25-04.492266,"57.96,75.04"
2024-05-28_13-25-04.524924,"56.81,66.64"
2024-05-28_13-25-04.553668,"53.76,71.39"
2024-05-28_13-25-04.586456,"72.12,70.48"
2024-05-28_13-25-04.619175,"49.08,85.09"
2024-05-28_13-25-04.651961,"95.52,73.57"
2024-05-28_13-25-04.684732,"58.38,69.65"
2024-05-28_13-25-04.717492,"76.90,60.28"
2024-05-28_13-25-04.750178,"91.59,51.58"
2024-05-28_13-25-04.778915,"58.10,60.58"
2024-05-28_13-25-04.811702,"50.11,73.57"
2024-05-28_13-25-04.844476,"56.44,64.98"
2024-05-28_13-25-04.877211,"53.98,72.40"
2024-05-28_13-25-04.910058,"69.63,67.37"
2024-05-28_13-25-04.942775,"54.90,79.64"
2024-05-28_13-25-04.975503,"52.44,81.78"
2024-05-28_13-25-05.008205,"83.85,64.89"
2024-05-28_13-25-05.037062,"72.39,74.20"
2024-05-28_13-25-05.069732,"87.25,47.92"
2024-05-28_13-25-05.102528,"77.40,60.03"
2024-05-28_13-25-05.135283,"74.69,61.89"
2024-05-28_13-25-05.168040,"56.58,65.15"
2024-05-28_13-25-05.200784,"47.58,70.63"
2024-05-28_13-25-05.233422,"61.53,76.82"
2024-05-28_13-25-05.262278,"66.53,69.30"
2024-05-28_13-25-05.295046,"51.25,75.35"
2024-05-28_13-25-05.327798,"88.09,71.80"
2024-05-28_13-25-05.360583,"68.55,79.33"
2024-05-28_13-25-05.393391,"78.23,41.45"
2024-05-28_13-25-05.426037,"93.56,44.00"
2024-05-28_13-25-05.458731,"71.27,59.44"
2024-05-28_13-25-05.487541,"51.17,66.99"
2024-05-28_13-25-05.520312,"54.95,77.68"
2024-05-28_13-25-05.553069,"54.23,71.63"
2024-05-28_13-25-05.585807,"65.38,69.20"
2024-05-28_13-25-05.618579,"57.04,73.96"
2024-05-28_13-25-05.651329,"68.12,74.67"
2024-05-28_13-25-05.684107,"76.18,81.12"
2024-05-28_13-25-05.712873,"75.96,63.03"
2024-05-28_13-25-05.745569,"87.48,47.70"
2024-05-28_13-25-05.778316,"95.17,54.33"
2024-05-28_13-25-05.811112,"66.04,63.67"
2024-05-28_13-25-05.843869,"53.74,65.23"
2024-05-28_13-25-05.876605,"53.70,71.69"
2024-05-28_13-25-05.911739,"63.03,67.20"
2024-05-28_13-25-05.939572,"62.89,71.22"
2024-05-28_13-25-05.970881,"51.78,81.02"
2024-05-28_13-25-06.003587,"84.89,71.42"
2024-05-28_13-25-06.036334,"72.47,76.59"
2024-05-28_13-25-06.069104,"77.69,49.59"
2024-05-28_13-25-06.101858,"87.65,40.94"
2024-05-28_13-25-06.134555,"84.06,59.46"
2024-05-28_13-25-06.163303,"49.00,64.13"
2024-05-28_13-25-06.196160,"52.47,71.09"
2024-05-28_13-25-06.228886,"62.80,65.94"
2024-05-28_13-25-06.261594,"61.68,77.37"
2024-05-28_13-25-06.294326,"51.22,74.40"
2024-05-28_13-25-06.327162,"54.24,74.30"
2024-05-28_13-25-06.359823,"88.87,73.73"
2024-05-28_13-25-06.388551,"75.43,69.45"
2024-05-28_13-25-06.421337,"82.89,61.85"
2024-05-28_13-25-06.454091,"99.85,59.00"
2024-05-28_13-25-06.486846,"67.59,48.12"
2024-05-28_13-25-06.519784,"45.68,72.83"
2024-05-28_13-25-06.552476,"61.14,77.55"
2024-05-28_13-25-06.585080,"57.88,67.52"
2024-05-28_13-25-06.613905,"63.88,73.31"
2024-05-28_13-25-06.646628,"57.88,69.89"
2024-05-28_13-25-06.679383,"78.10,79.31"
2024-05-28_13-25-06.712207,"79.12,78.21"
2024-05-28_13-25-06.744864,"67.64,47.05"
2024-05-28_13-25-06.777608,"83.02,39.42"
2024-05-28_13-25-06.810345,"89.73,66.99"
2024-05-28_13-25-06.839072,"48.89,62.49"
2024-05-28_13-25-06.871928,"49.86,71.43"
2024-05-28_13-25-06.904680,"59.92,65.96"
2024-05-28_13-25-06.937421,"54.04,73.21"
2024-05-28_13-25-06.970166,"68.19,67.90"
2024-05-28_13-25-07.002937,"50.40,85.66"
2024-05-28_13-25-07.035616,"94.20,71.79"
2024-05-28_13-25-07.064357,"63.39,69.56"
2024-05-28_13-25-07.097155,"79.38,36.92"
2024-05-28_13-25-07.129975,"94.65,48.00"
2024-05-28_13-25-07.162711,"74.94,64.81"
2024-05-28_13-25-07.195529,"73.19,60.64"
2024-05-28_13-25-07.228205,"59.71,65.01"
2024-05-28_13-25-07.260930,"48.07,70.80"
2024-05-28_13-25-07.289727,"74.77,76.30"
2024-05-28_13-25-07.322437,"57.89,70.06"
2024-05-28_13-25-07.355208,"51.35,75.28"
2024-05-28_13-25-07.388030,"72.89,76.96"
2024-05-28_13-25-07.420704,"71.76,64.13"
2024-05-28_13-25-07.453487,"80.44,40.96"
2024-05-28_13-25-07.486230,"85.76,42.98"
2024-05-28_13-25-07.514908,"72.03,49.90"
2024-05-28_13-25-07.547701,"52.58,66.88"
2024-05-28_13-25-07.580437,"58.16,77.87"
2024-05-28_13-25-07.613228,"52.62,72.27"
2024-05-28_13-25-07.646079,"77.02,69.22"
2024-05-28_13-25-07.678826,"54.89,73.89"
2024-05-28_13-25-07.711511,"68.33,73.26"
2024-05-28_13-25-07.744202,"75.04,82.20"
2024-05-28_13-25-07.772960,"74.31,62.11"
2024-05-28_13-25-07.805733,"90.40,47.43"
2024-05-28_13-25-07.838515,"80.41,42.20"
2024-05-28_13-25-07.871281,"72.47,63.55"
2024-05-28_13-25-07.904084,"54.41,65.61"
2024-05-28_13-25-07.936813,"53.69,71.95"
2024-05-28_13-25-07.969461,"62.20,67.37"
2024-05-28_13-25-07.998658,"60.33,71.76"
2024-05-28_13-25-08.031392,"52.19,81.50"
2024-05-28_13-25-08.063805,"83.43,71.86"
2024-05-28_13-25-08.096583,"72.23,76.03"
2024-05-28_13-25-08.129278,"79.94,49.26"
2024-05-28_13-25-08.162059,"77.76,40.41"
2024-05-28_13-25-08.194776,"85.14,65.00"
2024-05-28_13-25-08.223492,"50.57,64.14"
2024-05-28_13-25-08.256281,"53.55,71.15"
2024-05-28_13-25-08.289148,"63.76,66.15"
2024-05-28_13-25-08.321805,"73.70,77.84"
2024-05-28_13-25-08.356863,"50.36,75.29"
2024-05-28_13-25-08.387304,"71.74,74.40"
2024-05-28_13-25-08.420091,"87.22,77.57"
2024-05-28_13-25-08.448880,"78.52,50.82"
2024-05-28_13-25-08.481578,"87.84,41.70"
2024-05-28_13-25-08.514282,"86.74,50.76"
2024-05-28_13-25-08.547092,"51.30,65.18"
2024-05-28_13-25-08.579885,"46.37,74.09"
2024-05-28_13-25-08.612632,"61.65,75.29"
2024-05-28_13-25-08.645275,"72.57,69.28"
2024-05-28_13-25-08.674240,"63.45,73.25"
2024-05-28_13-25-08.706917,"56.45,70.13"
2024-05-28_13-25-08.739621,"77.36,81.55"
2024-05-28_13-25-08.772362,"76.90,77.66"
2024-05-28_13-25-08.807377,"69.03,47.02"
2024-05-28_13-25-08.875720,"83.97,39.15"
2024-05-28_13-25-08.892512,"91.49,62.58"
2024-05-28_13-25-08.899414,"51.62,62.72"
2024-05-28_13-25-08.932161,"50.90,71.35"
2024-05-28_13-25-08.964874,"60.06,66.25"
2024-05-28_13-25-08.997824,"54.01,71.45"
2024-05-28_13-25-09.030400,"71.49,67.96"
2024-05-28_13-25-09.063155,"49.89,87.71"
2024-05-28_13-25-09.095895,"97.85,68.78"
2024-05-28_13-25-09.124696,"63.48,70.87"
2024-05-28_13-25-09.157449,"78.23,58.84"
2024-05-28_13-25-09.190165,"94.44,63.64"
2024-05-28_13-25-09.222932,"58.88,65.45"
2024-05-28_13-25-09.255660,"63.46,60.77"
2024-05-28_13-25-09.288404,"60.76,66.31"
2024-05-28_13-25-09.321090,"48.33,69.72"
2024-05-28_13-25-09.349874,"72.35,76.76"
2024-05-28_13-25-09.382669,"57.28,70.19"
2024-05-28_13-25-09.415448,"68.47,85.44"
2024-05-28_13-25-09.448281,"90.18,78.49"
2024-05-28_13-25-09.480958,"74.82,64.37"
2024-05-28_13-25-09.513731,"82.75,41.07"
2024-05-28_13-25-09.546444,"75.69,68.87"
2024-05-28_13-25-09.575155,"47.29,76.99"
2024-05-28_13-25-09.607882,"58.26,65.33"
2024-05-28_13-25-09.640655,"55.81,75.28"
2024-05-28_13-25-09.673426,"53.28,71.35"
2024-05-28_13-25-09.706186,"77.36,68.90"
2024-05-28_13-25-09.738943,"57.22,73.72"
2024-05-28_13-25-09.771718,"68.34,72.64"
2024-05-28_13-25-09.800430,"75.99,82.36"
2024-05-28_13-25-09.833166,"74.10,61.82"
2024-05-28_13-25-09.865944,"89.07,47.71"
2024-05-28_13-25-09.898740,"80.38,60.47"
2024-05-28_13-25-09.931466,"72.71,62.68"
2024-05-28_13-25-09.964222,"53.49,65.37"
2024-05-28_13-25-09.996928,"53.24,72.41"
2024-05-28_13-25-10.029629,"61.39,67.23"
2024-05-28_13-25-10.058447,"61.17,71.93"
2024-05-28_13-25-10.091189,"51.24,81.59"
2024-05-28_13-25-10.123972,"81.44,75.69"
2024-05-28_13-25-10.156712,"71.08,77.17"
2024-05-28_13-25-10.189541,"77.09,49.31"
2024-05-28_13-25-10.222263,"86.36,40.59"
2024-05-28_13-25-10.254909,"84.42,62.83"
2024-05-28_13-25-10.283786,"49.99,64.01"
2024-05-28_13-25-10.316431,"53.54,71.31"
2024-05-28_13-25-10.349219,"62.14,66.17"
2024-05-28_13-25-10.382025,"63.97,77.70"
2024-05-28_13-25-10.414830,"54.25,75.88"
2024-05-28_13-25-10.447475,"53.85,73.23"
2024-05-28_13-25-10.480313,"87.88,76.36"
2024-05-28_13-25-10.508997,"75.15,51.98"
2024-05-28_13-25-10.541720,"80.46,43.36"
2024-05-28_13-25-10.574530,"59.54,77.96"
2024-05-28_13-25-10.608735,"61.38,54.78"
2024-05-28_13-25-10.642872,"45.63,70.75"
2024-05-28_13-25-10.673248,"59.83,75.27"
2024-05-28_13-25-10.706027,"58.13,68.41"
2024-05-28_13-25-10.768311,"66.63,73.33"
2024-05-28_13-25-10.774908,"58.97,69.73"
2024-05-28_13-25-10.802174,"78.01,83.21"
2024-05-28_13-25-10.832568,"77.28,77.94"
2024-05-28_13-25-10.865775,"65.95,47.57"
2024-05-28_13-25-10.898200,"81.85,39.00"
2024-05-28_13-25-10.930788,"99.76,63.45"
2024-05-28_13-25-10.959548,"49.10,62.63"
2024-05-28_13-25-10.992397,"51.48,71.93"
2024-05-28_13-25-11.025126,"60.78,65.96"
2024-05-28_13-25-11.057845,"54.78,71.30"
2024-05-28_13-25-11.090606,"71.53,68.61"
2024-05-28_13-25-11.123336,"49.41,89.58"
2024-05-28_13-25-11.158403,"97.87,82.30"
2024-05-28_13-25-11.190736,"64.28,71.56"
2024-05-28_13-25-11.217859,"75.71,37.46"
2024-05-28_13-25-11.250446,"91.64,48.26"
2024-05-28_13-25-11.283105,"75.52,59.49"
2024-05-28_13-25-11.315910,"58.48,60.94"
2024-05-28_13-25-11.348639,"60.53,66.03"
2024-05-28_13-25-11.381339,"47.44,69.84"
2024-05-28_13-25-11.410115,"62.03,76.20"
2024-05-28_13-25-11.442939,"68.21,70.62"
2024-05-28_13-25-11.475633,"50.83,74.14"
2024-05-28_13-25-11.508391,"91.98,75.34"
2024-05-28_13-25-11.541133,"69.35,82.26"
2024-05-28_13-25-11.573887,"66.58,61.08"
2024-05-28_13-25-11.606569,"70.35,68.54"
2024-05-28_13-25-11.635339,"71.02,60.66"
2024-05-28_13-25-11.668281,"72.26,47.95"
2024-05-28_13-25-11.700919,"53.47,76.25"
2024-05-28_13-25-11.733616,"54.68,71.61"
2024-05-28_13-25-11.766367,"73.00,68.10"
2024-05-28_13-25-11.799168,"62.29,72.83"
2024-05-28_13-25-11.831972,"52.72,70.34"
2024-05-28_13-25-11.860586,"80.50,84.43"
2024-05-28_13-25-11.893372,"71.78,77.48"
2024-05-28_13-25-11.926148,"77.52,50.25"
2024-05-28_13-25-11.959083,"89.25,34.29"
2024-05-28_13-25-11.991645,"81.02,63.71"
2024-05-28_13-25-12.024501,"52.24,64.01"
2024-05-28_13-25-12.057189,"52.09,71.69"
2024-05-28_13-25-12.085899,"61.96,66.03"
2024-05-28_13-25-12.118630,"59.95,71.01"
2024-05-28_13-25-12.151434,"54.80,80.85"
2024-05-28_13-25-12.184420,"51.03,75.11"
2024-05-28_13-25-12.217080,"91.07,73.56"
2024-05-28_13-25-12.249748,"68.63,69.25"
2024-05-28_13-25-12.282436,"84.13,41.08"
2024-05-28_13-25-12.311204,"77.89,69.20"
2024-05-28_13-25-12.343976,"56.73,44.40"
2024-05-28_13-25-12.379112,"50.25,73.58"
2024-05-28_13-25-12.409465,"60.32,65.64"
2024-05-28_13-25-12.442248,"56.77,76.09"
2024-05-28_13-25-12.475008,"65.33,74.69"
2024-05-28_13-25-12.507652,"60.11,69.78"
2024-05-28_13-25-12.540375,"73.75,91.92"
2024-05-28_13-25-12.569170,"94.25,65.91"
2024-05-28_13-25-12.601971,"58.63,80.73"
2024-05-28_13-25-12.634666,"60.19,62.19"
2024-05-28_13-25-12.667507,"82.76,46.69"
2024-05-28_13-25-12.700217,"76.36,57.77"
2024-05-28_13-25-12.732950,"54.65,75.39"
2024-05-28_13-25-12.765716,"58.08,67.67"
2024-05-28_13-25-12.794436,"55.66,71.99"
2024-05-28_13-25-12.827270,"79.82,67.95"
2024-05-28_13-25-12.860266,"48.40,74.30"
2024-05-28_13-25-12.902146,"67.77,85.20"
2024-05-28_13-25-12.926002,"75.89,67.44"
2024-05-28_13-25-12.958290,"74.20,60.57"
2024-05-28_13-25-12.991099,"93.30,48.50"
2024-05-28_13-25-13.020097,"79.68,67.75"
2024-05-28_13-25-13.052606,"75.96,54.98"
2024-05-28_13-25-13.085298,"52.30,65.24"
2024-05-28_13-25-13.118039,"53.13,70.83"
2024-05-28_13-25-13.150791,"61.52,66.73"
2024-05-28_13-25-13.183484,"73.03,79.00"
2024-05-28_13-25-13.216184,"49.52,74.76"
2024-05-28_13-25-13.244960,"71.01,71.58"
2024-05-28_13-25-13.277739,"87.97,75.17"
2024-05-28_13-25-13.310507,"76.32,68.63"
2024-05-28_13-25-13.343238,"84.23,41.66"
2024-05-28_13-25-13.376123,"89.60,59.08"
2024-05-28_13-25-13.408855,"66.69,47.09"
2024-05-28_13-25-13.441488,"44.17,70.35"
2024-05-28_13-25-13.470226,"60.84,75.74"
2024-05-28_13-25-13.503003,"60.03,68.21"
2024-05-28_13-25-13.535764,"65.26,72.63"
2024-05-28_13-25-13.568540,"60.43,70.15"
2024-05-28_13-25-13.601306,"78.84,83.80"
2024-05-28_13-25-13.634090,"68.70,80.11"
2024-05-28_13-25-13.666741,"72.27,71.42"
2024-05-28_13-25-13.695529,"82.48,40.33"
2024-05-28_13-25-13.728278,"95.87,55.03"
2024-05-28_13-25-13.761077,"76.18,52.35"
2024-05-28_13-25-13.793822,"53.73,73.61"
2024-05-28_13-25-13.826588,"57.74,65.03"
2024-05-28_13-25-13.859335,"54.84,71.13"
2024-05-28_13-25-13.892002,"81.47,68.53"
2024-05-28_13-25-13.920746,"50.42,81.46"
2024-05-28_13-25-13.953563,"68.29,81.86"
2024-05-28_13-25-13.986308,"84.18,66.43"
2024-05-28_13-25-14.019131,"71.77,58.78"
2024-05-28_13-25-14.051850,"87.23,48.18"
2024-05-28_13-25-14.084617,"76.68,40.76"
2024-05-28_13-25-14.117368,"73.28,54.38"
2024-05-28_13-25-14.146078,"56.21,65.30"
2024-05-28_13-25-14.179491,"47.61,69.64"
2024-05-28_13-25-14.211644,"61.18,78.09"
2024-05-28_13-25-14.244501,"73.06,68.70"
2024-05-28_13-25-14.279289,"50.11,74.10"
2024-05-28_13-25-14.310054,"94.94,84.98"
2024-05-28_13-25-14.342567,"71.53,81.68"
2024-05-28_13-25-14.371350,"75.69,42.95"
2024-05-28_13-25-14.404155,"85.89,44.60"
2024-05-28_13-25-14.437900,"88.27,57.05"
2024-05-28_13-25-14.469702,"66.95,46.88"
2024-05-28_13-25-14.502442,"52.99,76.06"
2024-05-28_13-25-14.535243,"51.99,72.46"
2024-05-28_13-25-14.567855,"59.53,66.83"
2024-05-28_13-25-14.596618,"64.18,72.57"
2024-05-28_13-25-14.629363,"73.66,75.14"
2024-05-28_13-25-14.662161,"89.86,78.75"
2024-05-28_13-25-14.694984,"71.75,78.08"
2024-05-28_13-25-14.727665,"72.73,49.20"
2024-05-28_13-25-14.760413,"86.44,35.33"
2024-05-28_13-25-14.793210,"78.21,52.61"
2024-05-28_13-25-14.821839,"62.50,48.59"
2024-05-28_13-25-14.854620,"52.67,72.38"
2024-05-28_13-25-14.887594,"62.31,65.95"
2024-05-28_13-25-14.920179,"49.69,71.77"
2024-05-28_13-25-14.952972,"68.31,78.78"
2024-05-28_13-25-14.985790,"51.10,71.15"
2024-05-28_13-25-15.018356,"68.50,78.01"
2024-05-28_13-25-15.051116,"83.86,67.60"
2024-05-28_13-25-15.079866,"75.61,63.52"
2024-05-28_13-25-15.112671,"83.76,40.72"
2024-05-28_13-25-15.145397,"79.48,69.00"
2024-05-28_13-25-15.178204,"72.76,74.15"
2024-05-28_13-25-15.211012,"57.37,65.54"
2024-05-28_13-25-15.243883,"57.71,76.41"
2024-05-28_13-25-15.276429,"52.97,72.05"
2024-05-28_13-25-15.305289,"72.31,67.83"
2024-05-28_13-25-15.337923,"54.91,76.68"
2024-05-28_13-25-15.370714,"98.26,74.30"
2024-05-28_13-25-15.403477,"58.44,81.45"
2024-05-28_13-25-15.436217,"76.59,42.58"
2024-05-28_13-25-15.468941,"95.26,47.44"
2024-05-28_13-25-15.501690,"67.06,58.52"
2024-05-28_13-25-15.530443,"74.25,62.36"
2024-05-28_13-25-15.563234,"54.60,66.66"
2024-05-28_13-25-15.595985,"53.67,70.73"
2024-05-28_13-25-15.628717,"60.00,68.88"
2024-05-28_13-25-15.661489,"77.22,77.54"
2024-05-28_13-25-15.694268,"51.19,80.54"
2024-05-28_13-25-15.726944,"83.64,68.93"
2024-05-28_13-25-15.755851,"71.72,77.13"
2024-05-28_13-25-15.788577,"76.23,49.65"
2024-05-28_13-25-15.821402,"91.84,41.28"
2024-05-28_13-25-15.854070,"74.74,65.30"
2024-05-28_13-25-15.886798,"69.36,45.96"
2024-05-28_13-25-15.919664,"51.22,71.90"
2024-05-28_13-25-15.954646,"63.02,66.23"
2024-05-28_13-25-15.981027,"69.26,76.73"
2024-05-28_13-25-16.013782,"58.50,73.74"
2024-05-28_13-25-16.046554,"52.14,69.93"
2024-05-28_13-25-16.079360,"90.80,76.83"
2024-05-28_13-25-16.112113,"75.77,73.35"
2024-05-28_13-25-16.144775,"72.37,63.92"
2024-05-28_13-25-16.177514,"84.81,41.40"
2024-05-28_13-25-16.206231,"72.26,68.06"
2024-05-28_13-25-16.239072,"69.77,56.95"
2024-05-28_13-25-16.271789,"58.03,75.83"
2024-05-28_13-25-16.304545,"55.53,66.30"
2024-05-28_13-25-16.337316,"54.16,72.06"
2024-05-28_13-25-16.370096,"70.90,69.05"
2024-05-28_13-25-16.402757,"50.32,85.60"
2024-05-28_13-25-16.431494,"97.17,83.98"
2024-05-28_13-25-16.464258,"57.13,71.62"
2024-05-28_13-25-16.497044,"77.13,39.77"
2024-05-28_13-25-16.529831,"98.55,47.19"
2024-05-28_13-25-16.562654,"61.56,66.21"
2024-05-28_13-25-16.595301,"59.71,60.41"
2024-05-28_13-25-16.628115,"55.71,64.79"
2024-05-28_13-25-16.656792,"54.30,70.80"
2024-05-28_13-25-16.689548,"81.42,69.49"
2024-05-28_13-25-16.722345,"67.92,82.25"
2024-05-28_13-25-16.755069,"51.95,75.18"
2024-05-28_13-25-16.787847,"83.91,73.46"
2024-05-28_13-25-16.820725,"68.73,75.63"
2024-05-28_13-25-16.853346,"82.17,49.87"
2024-05-28_13-25-16.882071,"92.76,39.93"
2024-05-28_13-25-16.914828,"70.25,66.31"
2024-05-28_13-25-16.947543,"51.91,65.79"
2024-05-28_13-25-16.980341,"44.44,70.56"
2024-05-28_13-25-17.013104,"61.68,76.22"
2024-05-28_13-25-17.045835,"69.98,68.09"
2024-05-28_13-25-17.078591,"58.60,74.75"
2024-05-28_13-25-17.107385,"55.56,70.24"
2024-05-28_13-25-17.142766,"97.79,85.33"
2024-05-28_13-25-17.174631,"73.47,62.92"
2024-05-28_13-25-17.205718,"74.06,46.84"
2024-05-28_13-25-17.238448,"86.20,38.90"
2024-05-28_13-25-17.271203,"92.88,62.78"
2024-05-28_13-25-17.303857,"56.22,63.10"
2024-05-28_13-25-17.332640,"52.79,71.84"
2024-05-28_13-25-17.365430,"58.57,65.43"
2024-05-28_13-25-17.398168,"70.25,73.58"
2024-05-28_13-25-17.430931,"66.68,69.54"
2024-05-28_13-25-17.463758,"50.97,84.15"
2024-05-28_13-25-17.496485,"91.52,74.26"
2024-05-28_13-25-17.529136,"65.04,69.95"
2024-05-28_13-25-17.557911,"79.79,36.32"
2024-05-28_13-25-17.590610,"97.18,46.80"
2024-05-28_13-25-17.623391,"57.45,60.46"
2024-05-28_13-25-17.656168,"66.16,74.67"
2024-05-28_13-25-17.688938,"59.64,68.09"
2024-05-28_13-25-17.721727,"48.87,72.90"
2024-05-28_13-25-17.754390,"69.04,77.68"
2024-05-28_13-25-17.787115,"53.63,72.61"
2024-05-28_13-25-17.815991,"68.49,83.18"
2024-05-28_13-25-17.848679,"86.29,65.91"
2024-05-28_13-25-17.881433,"71.77,64.04"
2024-05-28_13-25-17.914210,"83.24,42.66"
2024-05-28_13-25-17.946967,"87.12,43.05"
2024-05-28_13-25-17.979697,"73.02,63.68"
2024-05-28_13-25-18.012376,"56.04,65.55"
2024-05-28_13-25-18.041184,"56.35,75.38"
2024-05-28_13-25-18.073977,"53.52,72.87"
2024-05-28_13-25-18.111067,"66.11,68.41"
2024-05-28_13-25-18.144752,"54.54,72.96"
2024-05-28_13-25-18.172254,"68.35,74.62"
2024-05-28_13-25-18.205001,"75.72,80.99"
2024-05-28_13-25-18.237662,"73.71,61.99"
2024-05-28_13-25-18.266477,"87.29,47.57"
2024-05-28_13-25-18.299263,"84.56,58.53"
2024-05-28_13-25-18.332063,"64.49,62.92"
2024-05-28_13-25-18.364766,"53.12,64.83"
2024-05-28_13-25-18.397873,"54.67,71.06"
2024-05-28_13-25-18.430732,"65.18,67.26"
2024-05-28_13-25-18.462996,"68.78,70.99"
2024-05-28_13-25-18.491813,"51.95,79.62"
2024-05-28_13-25-18.524579,"89.75,75.42"
2024-05-28_13-25-18.557546,"74.78,77.49"
2024-05-28_13-25-18.590051,"74.60,68.09"
2024-05-28_13-25-18.622788,"92.47,41.87"
2024-05-28_13-25-18.655544,"88.06,61.95"
2024-05-28_13-25-18.688203,"50.29,64.00"
2024-05-28_13-25-18.716982,"48.82,73.82"
2024-05-28_13-25-18.749768,"60.39,65.81"
2024-05-28_13-25-18.782517,"56.94,76.40"
2024-05-28_13-25-18.815278,"60.56,72.97"
2024-05-28_13-25-18.848123,"53.98,71.48"
2024-05-28_13-25-18.880799,"77.35,77.57"
2024-05-28_13-25-18.913536,"80.70,69.09"
2024-05-28_13-25-18.942257,"67.72,63.01"
2024-05-28_13-25-18.975017,"84.43,42.17"
2024-05-28_13-25-19.007770,"83.04,65.68"
2024-05-28_13-25-19.040550,"54.53,56.52"
2024-05-28_13-25-19.073321,"56.18,74.53"
2024-05-28_13-25-19.106092,"59.40,66.57"
2024-05-28_13-25-19.138831,"52.82,73.71"
2024-05-28_13-25-19.167591,"74.15,68.72"
2024-05-28_13-25-19.200338,"49.86,84.92"
2024-05-28_13-25-19.233118,"98.13,84.90"
2024-05-28_13-25-19.265815,"58.90,70.84"
2024-05-28_13-25-19.298667,"76.14,40.53"
2024-05-28_13-25-19.335703,"95.55,46.88"
2024-05-28_13-25-19.364193,"61.00,51.27"
2024-05-28_13-25-19.392853,"60.29,60.55"
2024-05-28_13-25-19.425756,"55.53,64.42"
2024-05-28_13-25-19.458398,"53.19,71.49"
2024-05-28_13-25-19.491151,"62.35,66.75"
2024-05-28_13-25-19.523894,"62.80,78.78"
2024-05-28_13-25-19.556626,"51.70,76.32"
2024-05-28_13-25-19.589332,"83.40,75.08"
2024-05-28_13-25-19.618116,"69.58,74.97"
2024-05-28_13-25-19.650852,"83.30,48.60"
2024-05-28_13-25-19.683620,"85.78,41.13"
2024-05-28_13-25-19.716360,"70.28,75.05"
2024-05-28_13-25-19.749117,"55.69,67.66"
2024-05-28_13-25-19.781926,"48.62,70.33"
2024-05-28_13-25-19.814626,"62.29,75.71"
2024-05-28_13-25-19.843341,"67.54,70.19"
2024-05-28_13-25-19.876131,"58.71,73.76"
2024-05-28_13-25-19.908884,"56.41,78.01"
2024-05-28_13-25-19.941715,"94.77,87.12"
2024-05-28_13-25-19.974388,"74.64,76.54"
2024-05-28_13-25-20.007132,"73.74,45.80"
2024-05-28_13-25-20.039922,"85.26,38.48"
2024-05-28_13-25-20.068717,"92.84,63.27"
2024-05-28_13-25-20.101399,"55.04,62.64"
2024-05-28_13-25-20.134186,"53.26,72.08"
2024-05-28_13-25-20.166937,"59.14,66.35"
2024-05-28_13-25-20.199655,"70.47,71.78"
2024-05-28_13-25-20.232445,"65.18,69.66"
2024-05-28_13-25-20.265119,"51.53,85.29"
2024-05-28_13-25-20.293841,"91.28,72.99"
2024-05-28_13-25-20.326627,"64.12,69.23"
2024-05-28_13-25-20.359449,"81.79,36.45"
2024-05-28_13-25-20.392197,"97.37,56.98"
2024-05-28_13-25-20.424960,"56.49,56.10"
2024-05-28_13-25-20.457730,"50.24,73.38"
2024-05-28_13-25-20.490383,"61.66,66.51"
2024-05-28_13-25-20.523289,"48.91,69.70"
2024-05-28_13-25-20.551948,"73.44,77.22"
2024-05-28_13-25-20.584672,"61.21,71.16"
2024-05-28_13-25-20.617439,"68.86,73.42"
2024-05-28_13-25-20.650267,"92.75,78.35"
2024-05-28_13-25-20.682937,"70.96,64.67"
2024-05-28_13-25-20.715738,"74.15,61.01"
2024-05-28_13-25-20.748414,"50.14,67.46"
2024-05-28_13-25-20.777173,"70.94,65.55"
2024-05-28_13-25-20.809977,"56.20,64.87"
2024-05-28_13-25-20.842771,"57.14,75.43"
2024-05-28_13-25-20.875448,"55.59,72.32"
2024-05-28_13-25-20.908258,"64.83,67.38"
2024-05-28_13-25-20.940975,"57.10,73.54"
2024-05-28_13-25-20.973663,"68.21,74.01"
2024-05-28_13-25-21.002423,"77.25,77.32"
2024-05-28_13-25-21.035264,"73.84,62.38"
2024-05-28_13-25-21.068059,"87.68,48.47"
2024-05-28_13-25-21.100768,"82.59,66.51"
2024-05-28_13-25-21.133544,"76.15,73.29"
2024-05-28_13-25-21.166260,"52.28,65.03"
2024-05-28_13-25-21.198936,"53.75,71.57"
2024-05-28_13-25-21.227720,"62.29,66.09"
2024-05-28_13-25-21.260475,"69.52,71.23"
2024-05-28_13-25-21.293240,"51.54,81.01"
2024-05-28_13-25-21.326007,"91.14,74.69"
2024-05-28_13-25-21.358790,"88.54,78.53"
2024-05-28_13-25-21.391541,"73.18,51.39"
2024-05-28_13-25-21.424239,"87.88,40.38"
2024-05-28_13-25-21.452995,"89.15,59.58"
2024-05-28_13-25-21.485752,"62.00,45.02"
2024-05-28_13-25-21.518495,"51.31,71.94"
2024-05-28_13-25-21.551281,"59.84,65.32"
2024-05-28_13-25-21.584124,"56.75,76.04"
2024-05-28_13-25-21.616746,"62.88,74.96"
2024-05-28_13-25-21.649477,"57.11,70.02"
2024-05-28_13-25-21.678259,"74.82,95.62"
2024-05-28_13-25-21.711050,"91.85,65.67"
2024-05-28_13-25-21.743816,"61.45,79.87"
2024-05-28_13-25-21.776586,"61.14,61.84"
2024-05-28_13-25-21.809345,"82.65,46.38"
2024-05-28_13-25-21.842116,"65.55,46.71"
2024-05-28_13-25-21.874807,"55.59,75.09"
2024-05-28_13-25-21.903539,"57.52,67.45"
2024-05-28_13-25-21.936305,"55.04,71.68"
2024-05-28_13-25-21.969209,"79.68,68.07"
2024-05-28_13-25-22.001894,"48.65,73.96"
2024-05-28_13-25-22.034601,"68.06,84.50"
2024-05-28_13-25-22.067491,"74.27,72.87"
2024-05-28_13-25-22.100181,"74.43,60.60"
2024-05-28_13-25-22.129170,"94.46,48.30"
2024-05-28_13-25-22.161617,"78.95,58.01"
2024-05-28_13-25-22.194479,"68.59,60.48"
2024-05-28_13-25-22.227330,"54.94,65.23"
2024-05-28_13-25-22.259965,"54.03,70.77"
2024-05-28_13-25-22.292633,"62.01,67.22"
2024-05-28_13-25-22.325299,"67.12,79.07"
2024-05-28_13-25-22.354139,"51.02,74.78"
2024-05-28_13-25-22.386852,"86.82,69.44"
2024-05-28_13-25-22.419611,"70.83,76.59"
2024-05-28_13-25-22.452506,"80.42,49.91"
2024-05-28_13-25-22.485186,"88.05,40.93"
2024-05-28_13-25-22.517827,"73.63,53.09"
2024-05-28_13-25-22.550647,"62.02,48.69"
2024-05-28_13-25-22.579329,"45.08,69.93"
2024-05-28_13-25-22.612136,"61.11,76.19"
2024-05-28_13-25-22.644845,"73.25,68.68"
2024-05-28_13-25-22.677666,"60.92,72.87"
2024-05-28_13-25-22.710428,"57.50,71.31"
2024-05-28_13-25-22.743187,"77.21,83.05"
2024-05-28_13-25-22.775859,"65.70,63.84"
2024-05-28_13-25-22.804641,"79.46,69.71"
2024-05-28_13-25-22.837446,"87.69,38.99"
2024-05-28_13-25-22.870163,"91.25,62.76"
2024-05-28_13-25-22.902901,"53.60,63.04"
2024-05-28_13-25-22.935667,"53.55,72.03"
2024-05-28_13-25-22.968433,"59.17,65.21"
2024-05-28_13-25-23.001143,"55.04,71.56"
2024-05-28_13-25-23.029927,"68.67,69.29"
2024-05-28_13-25-23.062660,"50.90,84.48"
2024-05-28_13-25-23.095422,"92.54,71.57"
2024-05-28_13-25-23.128147,"66.12,70.43"
2024-05-28_13-25-23.161109,"78.90,36.05"
2024-05-28_13-25-23.193769,"95.62,47.08"
2024-05-28_13-25-23.226438,"58.90,57.81"
2024-05-28_13-25-23.255207,"67.36,74.47"
2024-05-28_13-25-23.287926,"59.96,65.27"
2024-05-28_13-25-23.320794,"47.87,69.68"
2024-05-28_13-25-23.353543,"73.49,79.35"
2024-05-28_13-25-23.386196,"57.10,69.72"
2024-05-28_13-25-23.419035,"69.28,73.79"
2024-05-28_13-25-23.451681,"96.85,76.02"
2024-05-28_13-25-23.480418,"69.79,79.32"
2024-05-28_13-25-23.513191,"79.79,42.38"
2024-05-28_13-25-23.545970,"95.56,44.17"
2024-05-28_13-25-23.578712,"69.85,62.26"
2024-05-28_13-25-23.611456,"52.04,65.48"
2024-05-28_13-25-23.644234,"55.47,75.59"
2024-05-28_13-25-23.676959,"53.67,72.70"
2024-05-28_13-25-23.709659,"67.30,66.93"
2024-05-28_13-25-23.738442,"56.61,73.20"
2024-05-28_13-25-23.771295,"67.70,79.05"
2024-05-28_13-25-23.804027,"80.22,77.87"
2024-05-28_13-25-23.836786,"66.93,77.40"
2024-05-28_13-25-23.869575,"85.84,48.84"
2024-05-28_13-25-23.902238,"82.27,66.17"
2024-05-28_13-25-23.934939,"63.27,75.90"
2024-05-28_13-25-23.963754,"51.61,64.74"
2024-05-28_13-25-23.996524,"54.60,71.20"
2024-05-28_13-25-24.029237,"63.24,66.62"
2024-05-28_13-25-24.062007,"68.34,72.59"
2024-05-28_13-25-24.094786,"52.62,80.36"
2024-05-28_13-25-24.129952,"91.02,83.59"
2024-05-28_13-25-24.160201,"75.79,78.08"
2024-05-28_13-25-24.189022,"73.47,67.53"
2024-05-28_13-25-24.221719,"91.67,41.27"
2024-05-28_13-25-24.254521,"85.74,54.93"
2024-05-28_13-25-24.287327,"55.76,47.50"
2024-05-28_13-25-24.320150,"51.98,71.32"
2024-05-28_13-25-24.352780,"60.97,66.48"
2024-05-28_13-25-24.385471,"69.01,77.68"
2024-05-28_13-25-24.414280,"57.06,74.00"
2024-05-28_13-25-24.447094,"52.35,80.24"
2024-05-28_13-25-24.479789,"95.39,68.50"
2024-05-28_13-25-24.512595,"73.59,71.20"
2024-05-28_13-25-24.545345,"77.58,61.94"
2024-05-28_13-25-24.578116,"89.39,41.31"
2024-05-28_13-25-24.610745,"66.91,70.46"
2024-05-28_13-25-24.639507,"49.92,56.48"
2024-05-28_13-25-24.672306,"58.46,75.12"
2024-05-28_13-25-24.719996,"58.45,67.61"
2024-05-28_13-25-24.737930,"52.98,71.64"
2024-05-28_13-25-24.770649,"70.82,70.77"
2024-05-28_13-25-24.803645,"50.39,82.61"
2024-05-28_13-25-24.836560,"81.54,86.90"
2024-05-28_13-25-24.864879,"65.61,74.64"
2024-05-28_13-25-24.897620,"79.38,60.56"
2024-05-28_13-25-24.930352,"99.77,47.08"
2024-05-28_13-25-24.963151,"59.55,58.48"
2024-05-28_13-25-24.995976,"66.04,75.63"
2024-05-28_13-25-25.028624,"56.43,64.69"
2024-05-28_13-25-25.061320,"55.26,71.89"
2024-05-28_13-25-25.090128,"71.83,68.08"
2024-05-28_13-25-25.122840,"53.73,79.67"
2024-05-28_13-25-25.155641,"69.24,84.17"
2024-05-28_13-25-25.188379,"87.02,80.00"
2024-05-28_13-25-25.221156,"72.24,59.04"
2024-05-28_13-25-25.253929,"88.06,48.34"
2024-05-28_13-25-25.286652,"77.44,68.43"
2024-05-28_13-25-25.315340,"76.20,61.38"
2024-05-28_13-25-25.348131,"56.88,65.08"
2024-05-28_13-25-25.380882,"47.86,69.64"
2024-05-28_13-25-25.413645,"63.24,76.88"
2024-05-28_13-25-25.446446,"72.59,68.97"
2024-05-28_13-25-25.479162,"50.68,74.23"
2024-05-28_13-25-25.511846,"95.44,73.64"
2024-05-28_13-25-25.540665,"71.11,81.32"
2024-05-28_13-25-25.573444,"77.17,42.47"
2024-05-28_13-25-25.606160,"93.20,44.60"
2024-05-28_13-25-25.638912,"70.15,69.04"
2024-05-28_13-25-25.671674,"52.37,65.50"
2024-05-28_13-25-25.704442,"57.18,76.22"
2024-05-28_13-25-25.737154,"53.17,71.38"
2024-05-28_13-25-25.765895,"70.75,66.72"
2024-05-28_13-25-25.798686,"62.23,72.79"
2024-05-28_13-25-25.831426,"58.52,86.26"
2024-05-28_13-25-25.864207,"94.48,71.71"
2024-05-28_13-25-25.896974,"73.05,78.21"
2024-05-28_13-25-25.929724,"77.04,48.47"
2024-05-28_13-25-25.962491,"91.42,35.29"
2024-05-28_13-25-25.991151,"84.28,62.66"
2024-05-28_13-25-26.023944,"50.42,63.68"
2024-05-28_13-25-26.056775,"51.47,70.62"
2024-05-28_13-25-26.089565,"64.01,66.02"
2024-05-28_13-25-26.122276,"58.82,72.67"
2024-05-28_13-25-26.155039,"53.73,79.33"
2024-05-28_13-25-26.187708,"52.37,74.26"
2024-05-28_13-25-26.216503,"90.61,75.46"
2024-05-28_13-25-26.249207,"69.75,68.43"
2024-05-28_13-25-26.282012,"87.75,41.81"
2024-05-28_13-25-26.314726,"99.97,59.76"
2024-05-28_13-25-26.347523,"59.78,44.95"
2024-05-28_13-25-26.380251,"51.65,71.80"
2024-05-28_13-25-26.412985,"59.54,66.37"
2024-05-28_13-25-26.445713,"58.65,76.91"
2024-05-28_13-25-26.474500,"62.73,73.46"
2024-05-28_13-25-26.507274,"53.54,69.45"
2024-05-28_13-25-26.540019,"76.04,81.06"
2024-05-28_13-25-26.572760,"86.23,65.15"
2024-05-28_13-25-26.605568,"64.98,63.29"
2024-05-28_13-25-26.638245,"83.24,41.64"
2024-05-28_13-25-26.670976,"84.26,46.17"
2024-05-28_13-25-26.699729,"69.81,70.32"
2024-05-28_13-25-26.732578,"56.71,75.53"
2024-05-28_13-25-26.765281,"58.89,67.04"
2024-05-28_13-25-26.798071,"53.93,71.33"
2024-05-28_13-25-26.830896,"76.62,69.97"
2024-05-28_13-25-26.863507,"75.63,95.98"
2024-05-28_13-25-26.896232,"84.88,72.38"
2024-05-28_13-25-26.925219,"59.36,70.21"
2024-05-28_13-25-26.957833,"77.53,40.67"
2024-05-28_13-25-26.990604,"97.83,47.15"
2024-05-28_13-25-27.023297,"61.33,49.30"
2024-05-28_13-25-27.056162,"64.03,76.16"
2024-05-28_13-25-27.088823,"56.74,64.50"
2024-05-28_13-25-27.121481,"54.47,72.43"
2024-05-28_13-25-27.150327,"74.56,67.06"
2024-05-28_13-25-27.183049,"55.62,79.27"
2024-05-28_13-25-27.215813,"51.89,76.63"
2024-05-28_13-25-27.248590,"83.87,74.72"
2024-05-28_13-25-27.281345,"69.35,75.42"
2024-05-28_13-25-27.314130,"82.96,49.05"
2024-05-28_13-25-27.346808,"84.97,41.12"
2024-05-28_13-25-27.375573,"85.18,61.54"
2024-05-28_13-25-27.408324,"53.51,65.19"
2024-05-28_13-25-27.441129,"46.81,69.73"
2024-05-28_13-25-27.473857,"63.12,76.23"
2024-05-28_13-25-27.506622,"63.23,68.59"
2024-05-28_13-25-27.539350,"53.55,75.17"
2024-05-28_13-25-27.572120,"58.63,75.17"
2024-05-28_13-25-27.600815,"86.85,77.82"
2024-05-28_13-25-27.633604,"75.57,61.59"
2024-05-28_13-25-27.666378,"85.30,45.63"
2024-05-28_13-25-27.699139,"88.13,57.19"
2024-05-28_13-25-27.731885,"68.27,48.33"
2024-05-28_13-25-27.764617,"55.68,76.60"
2024-05-28_13-25-27.797325,"53.91,71.31"
2024-05-28_13-25-27.826167,"59.24,66.27"
2024-05-28_13-25-27.858931,"77.77,74.98"
2024-05-28_13-25-27.891613,"66.65,60.29"
2024-05-28_13-25-27.946622,"82.80,79.78"
2024-05-28_13-25-27.957375,"71.86,78.07"
2024-05-28_13-25-27.989984,"74.99,48.91"
2024-05-28_13-25-28.022663,"89.18,35.64"
2024-05-28_13-25-28.051415,"93.49,64.50"
2024-05-28_13-25-28.084150,"51.24,63.68"
2024-05-28_13-25-28.116999,"52.51,70.80"
2024-05-28_13-25-28.149688,"64.57,66.79"
2024-05-28_13-25-28.182431,"61.12,71.81"
2024-05-28_13-25-28.215194,"57.69,78.72"
2024-05-28_13-25-28.247890,"51.48,79.84"
2024-05-28_13-25-28.276658,"92.55,71.86"
2024-05-28_13-25-28.309414,"68.34,70.18"
2024-05-28_13-25-28.342177,"86.76,43.47"
2024-05-28_13-25-28.374966,"89.47,69.41"
2024-05-28_13-25-28.407673,"56.81,44.22"
2024-05-28_13-25-28.440467,"52.11,72.48"
2024-05-28_13-25-28.473184,"60.10,66.44"
2024-05-28_13-25-28.501923,"56.07,75.98"
2024-05-28_13-25-28.534742,"63.11,73.51"
2024-05-28_13-25-28.567444,"55.98,69.52"
2024-05-28_13-25-28.600335,"76.08,80.23"
2024-05-28_13-25-28.633037,"82.68,66.66"
2024-05-28_13-25-28.665724,"68.52,63.46"
2024-05-28_13-25-28.698448,"83.83,41.47"
2024-05-28_13-25-28.727221,"94.05,65.10"
2024-05-28_13-25-28.760115,"58.88,56.37"
2024-05-28_13-25-28.792722,"57.44,75.34"
2024-05-28_13-25-28.825457,"59.73,67.12"
2024-05-28_13-25-28.858270,"52.75,71.83"
2024-05-28_13-25-28.891021,"73.86,73.80"
2024-05-28_13-25-28.923789,"66.41,71.98"
2024-05-28_13-25-28.952473,"89.17,76.61"
2024-05-28_13-25-28.985205,"60.73,49.51"
2024-05-28_13-25-29.017970,"78.37,39.56"
2024-05-28_13-25-29.050805,"93.88,55.82"
2024-05-28_13-25-29.083525,"76.45,52.81"
2024-05-28_13-25-29.116297,"52.60,73.41"
