timestamp,EMG
2024-05-28_13-12-35.635067,"89.14,55.66"
2024-05-28_13-12-35.667721,"87.58,56.13"
2024-05-28_13-12-35.696478,"74.53,57.57"
2024-05-28_13-12-35.729233,"74.47,98.17"
2024-05-28_13-12-35.762058,"82.23,95.57"
2024-05-28_13-12-35.794760,"71.16,92.43"
2024-05-28_13-12-35.827626,"90.76,82.20"
2024-05-28_13-12-35.860275,"91.19,79.35"
2024-05-28_13-12-35.893004,"99.26,49.95"
2024-05-28_13-12-35.925683,"111.10,57.95"
2024-05-28_13-12-35.954474,"89.32,55.15"
2024-05-28_13-12-35.987285,"75.71,58.83"
2024-05-28_13-12-36.020020,"75.14,61.87"
2024-05-28_13-12-36.052813,"77.82,71.61"
2024-05-28_13-12-36.085574,"80.11,96.95"
2024-05-28_13-12-36.118296,"85.75,83.96"
2024-05-28_13-12-36.147110,"89.85,84.06"
2024-05-28_13-12-36.179788,"99.98,74.55"
2024-05-28_13-12-36.212545,"91.60,71.50"
2024-05-28_13-12-36.245340,"108.55,53.87"
2024-05-28_13-12-36.278085,"94.52,52.73"
2024-05-28_13-12-36.310832,"72.53,57.01"
2024-05-28_13-12-36.343549,"64.60,61.24"
2024-05-28_13-12-36.376264,"77.60,62.31"
2024-05-28_13-12-36.405076,"79.02,90.32"
2024-05-28_13-12-36.437836,"84.51,81.53"
2024-05-28_13-12-36.470624,"85.78,92.44"
2024-05-28_13-12-36.503403,"100.84,87.39"
2024-05-28_13-12-36.536151,"91.27,72.38"
2024-05-28_13-12-36.568840,"107.34,53.56"
2024-05-28_13-12-36.601575,"100.55,58.09"
2024-05-28_13-12-36.630409,"77.07,50.66"
2024-05-28_13-12-36.663122,"74.27,60.41"
2024-05-28_13-12-36.695944,"75.27,71.90"
2024-05-28_13-12-36.728638,"77.01,81.97"
2024-05-28_13-12-36.761411,"82.68,85.89"
2024-05-28_13-12-36.794158,"87.32,87.57"
2024-05-28_13-12-36.826838,"92.36,86.63"
2024-05-28_13-12-36.855650,"100.29,70.34"
2024-05-28_13-12-36.888392,"99.05,54.57"
2024-05-28_13-12-36.921203,"99.59,60.24"
2024-05-28_13-12-36.954013,"66.45,57.60"
2024-05-28_13-12-36.986725,"71.09,55.57"
2024-05-28_13-12-37.019446,"75.12,62.04"
2024-05-28_13-12-37.052175,"86.36,90.68"
2024-05-28_13-12-37.080918,"88.36,92.48"
2024-05-28_13-12-37.113771,"86.28,86.12"
2024-05-28_13-12-37.146508,"94.17,86.20"
2024-05-28_13-12-37.179261,"99.29,58.69"
2024-05-28_13-12-37.212057,"100.27,47.50"
2024-05-28_13-12-37.244911,"108.63,59.22"
2024-05-28_13-12-37.277457,"67.28,56.82"
2024-05-28_13-12-37.306215,"72.89,55.96"
2024-05-28_13-12-37.338994,"79.18,92.56"
2024-05-28_13-12-37.371791,"81.89,81.65"
2024-05-28_13-12-37.404579,"68.71,95.86"
2024-05-28_13-12-37.437336,"87.57,90.54"
2024-05-28_13-12-37.470052,"100.16,83.77"
2024-05-28_13-12-37.502766,"105.59,72.59"
2024-05-28_13-12-37.531517,"84.64,54.23"
2024-05-28_13-12-37.564289,"107.71,54.19"
2024-05-28_13-12-37.597059,"74.04,55.57"
2024-05-28_13-12-37.629920,"66.81,58.89"
2024-05-28_13-12-37.662597,"77.94,103.67"
2024-05-28_13-12-37.695337,"80.09,82.92"
2024-05-28_13-12-37.728038,"74.36,88.38"
2024-05-28_13-12-37.756793,"85.81,78.69"
2024-05-28_13-12-37.789575,"103.30,80.13"
2024-05-28_13-12-37.822312,"101.78,71.62"
2024-05-28_13-12-37.855091,"90.66,55.46"
2024-05-28_13-12-37.887932,"107.78,54.09"
2024-05-28_13-12-37.920652,"73.91,60.12"
2024-05-28_13-12-37.953364,"79.40,54.06"
2024-05-28_13-12-37.982099,"66.89,82.42"
2024-05-28_13-12-38.014913,"83.51,81.09"
2024-05-28_13-12-38.047675,"74.87,88.82"
2024-05-28_13-12-38.080407,"93.67,89.74"
2024-05-28_13-12-38.113261,"95.55,82.89"
2024-05-28_13-12-38.145963,"103.14,70.71"
2024-05-28_13-12-38.178618,"99.46,52.59"
2024-05-28_13-12-38.207412,"99.00,53.89"
2024-05-28_13-12-38.240144,"75.79,62.56"
2024-05-28_13-12-38.272927,"76.36,59.37"
2024-05-28_13-12-38.305668,"67.16,99.66"
2024-05-28_13-12-38.338461,"80.66,83.06"
2024-05-28_13-12-38.371246,"77.51,85.96"
2024-05-28_13-12-38.403935,"98.24,89.30"
2024-05-28_13-12-38.432675,"92.72,75.61"
2024-05-28_13-12-38.465455,"109.56,69.60"
2024-05-28_13-12-38.498397,"88.77,58.06"
2024-05-28_13-12-38.531036,"87.51,50.62"
2024-05-28_13-12-38.563762,"74.68,60.97"
2024-05-28_13-12-38.596539,"71.57,60.01"
2024-05-28_13-12-38.629254,"71.93,69.22"
2024-05-28_13-12-38.657983,"86.59,88.85"
2024-05-28_13-12-38.690737,"66.54,79.06"
2024-05-28_13-12-38.723525,"98.29,92.56"
2024-05-28_13-12-38.756321,"98.33,70.94"
2024-05-28_13-12-38.789071,"100.45,68.04"
2024-05-28_13-12-38.821826,"106.69,57.57"
2024-05-28_13-12-38.854536,"95.62,56.18"
2024-05-28_13-12-38.887257,"72.19,57.81"
2024-05-28_13-12-38.916058,"75.37,58.46"
2024-05-28_13-12-38.948774,"73.42,97.35"
2024-05-28_13-12-38.981587,"79.45,96.43"
2024-05-28_13-12-39.014314,"71.99,92.55"
2024-05-28_13-12-39.047088,"91.41,83.15"
2024-05-28_13-12-39.079842,"99.11,75.83"
2024-05-28_13-12-39.112578,"96.15,65.08"
2024-05-28_13-12-39.141407,"112.12,58.08"
2024-05-28_13-12-39.174129,"87.21,57.68"
2024-05-28_13-12-39.206879,"72.17,58.95"
2024-05-28_13-12-39.239626,"73.42,68.08"
2024-05-28_13-12-39.272400,"74.10,92.60"
2024-05-28_13-12-39.305095,"81.49,95.67"
2024-05-28_13-12-39.337820,"74.07,92.28"
2024-05-28_13-12-39.366616,"92.51,81.30"
2024-05-28_13-12-39.399433,"109.57,75.90"
2024-05-28_13-12-39.432237,"96.56,70.90"
2024-05-28_13-12-39.464974,"96.51,55.52"
2024-05-28_13-12-39.497784,"91.50,53.36"
2024-05-28_13-12-39.530430,"67.85,56.47"
2024-05-28_13-12-39.563133,"71.62,75.49"
2024-05-28_13-12-39.591884,"72.42,89.46"
2024-05-28_13-12-39.624704,"85.39,86.43"
2024-05-28_13-12-39.657455,"68.47,88.09"
2024-05-28_13-12-39.690191,"93.63,89.17"
2024-05-28_13-12-39.722968,"104.23,81.75"
2024-05-28_13-12-39.755706,"91.11,55.72"
2024-05-28_13-12-39.788398,"104.37,54.66"
2024-05-28_13-12-39.817204,"82.44,58.05"
2024-05-28_13-12-39.849954,"67.07,51.46"
2024-05-28_13-12-39.882732,"73.01,63.36"
2024-05-28_13-12-39.915498,"76.02,82.84"
2024-05-28_13-12-39.948274,"86.12,87.44"
2024-05-28_13-12-39.980995,"91.37,92.25"
2024-05-28_13-12-40.013692,"89.94,88.11"
2024-05-28_13-12-40.042729,"104.69,82.48"
2024-05-28_13-12-40.075524,"68.48,53.48"
2024-05-28_13-12-40.108067,"71.65,59.26"
2024-05-28_13-12-40.140815,"85.71,61.58"
2024-05-28_13-12-40.173595,"78.40,59.50"
2024-05-28_13-12-40.206305,"75.33,52.40"
2024-05-28_13-12-40.238950,"75.74,84.02"
2024-05-28_13-12-40.267776,"82.84,89.79"
2024-05-28_13-12-40.300540,"101.44,94.64"
2024-05-28_13-12-40.333272,"82.72,81.62"
2024-05-28_13-12-40.366044,"104.32,68.68"
2024-05-28_13-12-40.398885,"91.11,58.06"
2024-05-28_13-12-40.431866,"97.65,47.43"
2024-05-28_13-12-40.464323,"80.84,60.96"
2024-05-28_13-12-40.493185,"73.27,61.25"
2024-05-28_13-12-40.525859,"72.72,68.24"
2024-05-28_13-12-40.558631,"80.23,91.41"
2024-05-28_13-12-40.591431,"78.41,83.55"
2024-05-28_13-12-40.624163,"93.55,95.13"
2024-05-28_13-12-40.656869,"94.62,70.53"
2024-05-28_13-12-40.689601,"97.31,69.30"
2024-05-28_13-12-40.718373,"107.82,57.69"
2024-05-28_13-12-40.751111,"99.64,54.96"
2024-05-28_13-12-40.783878,"74.51,59.59"
2024-05-28_13-12-40.816644,"78.14,57.39"
2024-05-28_13-12-40.849454,"75.55,54.89"
2024-05-28_13-12-40.882161,"81.28,95.68"
2024-05-28_13-12-40.914888,"88.28,71.74"
2024-05-28_13-12-40.943629,"90.12,86.32"
2024-05-28_13-12-40.976463,"90.01,80.87"
2024-05-28_13-12-41.009236,"102.43,67.53"
2024-05-28_13-12-41.041996,"113.99,58.39"
2024-05-28_13-12-41.074743,"89.89,55.14"
2024-05-28_13-12-41.107507,"78.16,59.09"
2024-05-28_13-12-41.140167,"75.03,61.27"
2024-05-28_13-12-41.168971,"78.65,60.90"
2024-05-28_13-12-41.201693,"84.37,94.42"
2024-05-28_13-12-41.234582,"74.71,82.69"
2024-05-28_13-12-41.267255,"89.33,83.23"
2024-05-28_13-12-41.300054,"105.45,74.25"
2024-05-28_13-12-41.332813,"92.98,70.66"
2024-05-28_13-12-41.365541,"106.97,53.98"
2024-05-28_13-12-41.394209,"98.21,54.42"
2024-05-28_13-12-41.427052,"71.47,55.93"
2024-05-28_13-12-41.459752,"79.08,77.30"
2024-05-28_13-12-41.492574,"74.38,96.07"
2024-05-28_13-12-41.525258,"83.98,88.41"
2024-05-28_13-12-41.558078,"69.76,81.17"
2024-05-28_13-12-41.590778,"92.34,89.94"
2024-05-28_13-12-41.623525,"112.14,80.61"
2024-05-28_13-12-41.652287,"87.07,55.56"
2024-05-28_13-12-41.685058,"106.86,53.62"
2024-05-28_13-12-41.717823,"94.79,58.03"
2024-05-28_13-12-41.750574,"68.75,51.81"
2024-05-28_13-12-41.783489,"77.15,87.50"
2024-05-28_13-12-41.816221,"71.09,86.50"
2024-05-28_13-12-41.844850,"70.19,88.33"
2024-05-28_13-12-41.877643,"79.36,95.05"
2024-05-28_13-12-41.910390,"85.97,86.46"
2024-05-28_13-12-41.943121,"103.94,82.42"
2024-05-28_13-12-41.975866,"99.51,52.63"
2024-05-28_13-12-42.008703,"85.65,54.27"
2024-05-28_13-12-42.041331,"90.44,61.15"
2024-05-28_13-12-42.074051,"62.45,59.05"
2024-05-28_13-12-42.102896,"73.38,77.81"
2024-05-28_13-12-42.135668,"77.36,82.22"
2024-05-28_13-12-42.168421,"84.17,87.77"
2024-05-28_13-12-42.201180,"96.78,94.98"
2024-05-28_13-12-42.233963,"87.73,84.04"
2024-05-28_13-12-42.266686,"107.20,81.63"
2024-05-28_13-12-42.299371,"98.10,57.56"
2024-05-28_13-12-42.328218,"99.38,48.12"
2024-05-28_13-12-42.360931,"78.96,60.77"
2024-05-28_13-12-42.393699,"71.42,59.44"
2024-05-28_13-12-42.426475,"68.53,100.16"
2024-05-28_13-12-42.459232,"85.33,88.00"
2024-05-28_13-12-42.491938,"68.80,78.56"
2024-05-28_13-12-42.524657,"98.76,91.70"
2024-05-28_13-12-42.553446,"97.67,72.42"
2024-05-28_13-12-42.586259,"96.66,69.70"
2024-05-28_13-12-42.618987,"108.35,58.81"
2024-05-28_13-12-42.651764,"91.72,56.16"
2024-05-28_13-12-42.684543,"73.36,57.00"
2024-05-28_13-12-42.717245,"73.20,58.42"
2024-05-28_13-12-42.749928,"72.36,81.58"
2024-05-28_13-12-42.778732,"86.91,91.88"
2024-05-28_13-12-42.811505,"73.82,87.33"
2024-05-28_13-12-42.844290,"93.23,80.24"
2024-05-28_13-12-42.877037,"95.54,80.86"
2024-05-28_13-12-42.909845,"97.00,47.45"
2024-05-28_13-12-42.942563,"110.56,58.30"
2024-05-28_13-12-42.975252,"76.43,55.76"
2024-05-28_13-12-43.003991,"70.94,57.93"
2024-05-28_13-12-43.036783,"84.30,70.21"
2024-05-28_13-12-43.069572,"83.39,80.97"
2024-05-28_13-12-43.102371,"72.31,94.03"
2024-05-28_13-12-43.135151,"84.23,81.44"
2024-05-28_13-12-43.167840,"94.05,83.60"
2024-05-28_13-12-43.200581,"103.02,71.83"
2024-05-28_13-12-43.229324,"96.39,54.13"
2024-05-28_13-12-43.262076,"106.66,55.01"
2024-05-28_13-12-43.294849,"75.74,55.63"
2024-05-28_13-12-43.327668,"68.45,55.97"
2024-05-28_13-12-43.360464,"75.69,102.17"
2024-05-28_13-12-43.393192,"80.08,83.80"
2024-05-28_13-12-43.425851,"71.25,87.52"
2024-05-28_13-12-43.454654,"85.92,92.27"
2024-05-28_13-12-43.487415,"103.64,82.26"
2024-05-28_13-12-43.520242,"101.20,74.78"
2024-05-28_13-12-43.552977,"89.97,55.31"
2024-05-28_13-12-43.585679,"88.81,56.91"
2024-05-28_13-12-43.618521,"66.24,59.45"
2024-05-28_13-12-43.651145,"77.15,54.74"
2024-05-28_13-12-43.679917,"65.60,84.19"
2024-05-28_13-12-43.712754,"83.25,82.64"
2024-05-28_13-12-43.745441,"86.28,88.00"
2024-05-28_13-12-43.778209,"95.25,84.97"
2024-05-28_13-12-43.810960,"93.66,89.13"
2024-05-28_13-12-43.843793,"106.43,68.95"
2024-05-28_13-12-43.876428,"99.02,52.73"
2024-05-28_13-12-43.905154,"86.21,54.08"
2024-05-28_13-12-43.937952,"65.93,63.76"
2024-05-28_13-12-43.970718,"87.26,60.04"
2024-05-28_13-12-44.003524,"73.63,79.62"
2024-05-28_13-12-44.036328,"66.59,84.28"
2024-05-28_13-12-44.069068,"73.71,92.62"
2024-05-28_13-12-44.101824,"105.14,88.01"
2024-05-28_13-12-44.130577,"85.74,70.71"
2024-05-28_13-12-44.163414,"89.75,55.13"
2024-05-28_13-12-44.196106,"76.21,60.76"
2024-05-28_13-12-44.228858,"75.12,50.40"
2024-05-28_13-12-44.261616,"67.54,65.41"
2024-05-28_13-12-44.294393,"75.88,66.94"
2024-05-28_13-12-44.327000,"72.10,86.01"
2024-05-28_13-12-44.355814,"76.32,90.64"
2024-05-28_13-12-44.388515,"89.00,91.80"
2024-05-28_13-12-44.421326,"95.45,87.49"
2024-05-28_13-12-44.454186,"102.12,55.58"
2024-05-28_13-12-44.486888,"98.46,54.58"
2024-05-28_13-12-44.519960,"102.84,59.77"
2024-05-28_13-12-44.552431,"69.66,59.12"
2024-05-28_13-12-44.581117,"82.00,87.04"
2024-05-28_13-12-44.613900,"70.50,83.63"
2024-05-28_13-12-44.646646,"86.19,88.97"
2024-05-28_13-12-44.679511,"68.83,99.10"
2024-05-28_13-12-44.712166,"80.45,82.23"
2024-05-28_13-12-44.744926,"97.76,81.61"
2024-05-28_13-12-44.777600,"95.32,73.54"
2024-05-28_13-12-44.810325,"105.52,47.33"
2024-05-28_13-12-44.839118,"88.02,62.29"
2024-05-28_13-12-44.871909,"55.99,60.62"
2024-05-28_13-12-44.904681,"72.94,57.75"
2024-05-28_13-12-44.937488,"80.86,91.42"
2024-05-28_13-12-44.970393,"74.29,82.93"
2024-05-28_13-12-45.002902,"83.54,95.01"
2024-05-28_13-12-45.035654,"86.22,81.39"
2024-05-28_13-12-45.064407,"99.90,72.17"
2024-05-28_13-12-45.097269,"107.37,58.91"
2024-05-28_13-12-45.130026,"99.41,55.21"
2024-05-28_13-12-45.162746,"77.11,57.68"
2024-05-28_13-12-45.195528,"76.78,58.47"
2024-05-28_13-12-45.228197,"72.29,98.81"
2024-05-28_13-12-45.260924,"85.63,94.00"
2024-05-28_13-12-45.289693,"73.52,71.29"
2024-05-28_13-12-45.322471,"89.85,83.06"
2024-05-28_13-12-45.355299,"97.46,74.13"
2024-05-28_13-12-45.388008,"95.62,65.92"
2024-05-28_13-12-45.420936,"111.82,57.54"
2024-05-28_13-12-45.453564,"80.90,56.41"
2024-05-28_13-12-45.486543,"77.74,56.53"
2024-05-28_13-12-45.515059,"76.64,67.92"
2024-05-28_13-12-45.547818,"77.73,70.64"
2024-05-28_13-12-45.580536,"81.25,96.50"
2024-05-28_13-12-45.613286,"87.94,86.96"
2024-05-28_13-12-45.646060,"95.64,79.72"
2024-05-28_13-12-45.678815,"108.40,80.94"
2024-05-28_13-12-45.711500,"95.99,54.03"
2024-05-28_13-12-45.740356,"101.02,53.78"
2024-05-28_13-12-45.773098,"83.38,55.06"
2024-05-28_13-12-45.805911,"74.76,58.48"
2024-05-28_13-12-45.838589,"75.17,100.55"
2024-05-28_13-12-45.871341,"86.57,81.43"
2024-05-28_13-12-45.904182,"86.40,86.56"
2024-05-28_13-12-45.936825,"82.29,90.13"
2024-05-28_13-12-45.965556,"95.25,84.25"
2024-05-28_13-12-45.998374,"106.64,59.92"
2024-05-28_13-12-46.031145,"83.00,54.83"
2024-05-28_13-12-46.064044,"82.32,57.32"
2024-05-28_13-12-46.096702,"66.97,60.05"
2024-05-28_13-12-46.129400,"88.80,84.77"
2024-05-28_13-12-46.162100,"71.47,98.24"
2024-05-28_13-12-46.190893,"76.41,81.97"
2024-05-28_13-12-46.223635,"88.93,82.63"
2024-05-28_13-12-46.256407,"93.84,80.25"
2024-05-28_13-12-46.289244,"99.46,79.60"
2024-05-28_13-12-46.321922,"107.84,54.60"
2024-05-28_13-12-46.354709,"100.49,51.82"
2024-05-28_13-12-46.387387,"73.18,56.35"
2024-05-28_13-12-46.416155,"61.71,64.84"
2024-05-28_13-12-46.448942,"77.81,63.28"
2024-05-28_13-12-46.481678,"79.53,90.20"
2024-05-28_13-12-46.514490,"85.22,83.09"
2024-05-28_13-12-46.547311,"82.60,94.50"
2024-05-28_13-12-46.580119,"95.66,95.18"
2024-05-28_13-12-46.612709,"92.26,57.83"
2024-05-28_13-12-46.645378,"107.40,54.21"
2024-05-28_13-12-46.674269,"96.66,57.72"
2024-05-28_13-12-46.706988,"66.95,53.16"
2024-05-28_13-12-46.739761,"77.14,87.79"
2024-05-28_13-12-46.772548,"70.18,83.59"
2024-05-28_13-12-46.805325,"89.05,89.10"
2024-05-28_13-12-46.838026,"91.47,91.95"
2024-05-28_13-12-46.866832,"83.52,86.84"
2024-05-28_13-12-46.899511,"105.09,73.19"
2024-05-28_13-12-46.932290,"98.76,53.05"
2024-05-28_13-12-46.965137,"95.26,53.71"
2024-05-28_13-12-46.997872,"83.39,62.88"
2024-05-28_13-12-47.030651,"78.69,58.47"
2024-05-28_13-12-47.063341,"72.18,66.88"
2024-05-28_13-12-47.096070,"72.71,72.92"
2024-05-28_13-12-47.124844,"64.33,82.41"
2024-05-28_13-12-47.157558,"96.61,92.89"
2024-05-28_13-12-47.190358,"89.82,84.02"
2024-05-28_13-12-47.223132,"102.77,70.25"
2024-05-28_13-12-47.255921,"98.21,57.99"
2024-05-28_13-12-47.288570,"96.64,48.59"
2024-05-28_13-12-47.321291,"75.81,63.16"
2024-05-28_13-12-47.350160,"69.90,60.76"
2024-05-28_13-12-47.382873,"66.69,93.93"
2024-05-28_13-12-47.415714,"87.10,89.24"
2024-05-28_13-12-47.448389,"81.26,76.09"
2024-05-28_13-12-47.481220,"97.86,87.07"
2024-05-28_13-12-47.513872,"99.63,82.07"
2024-05-28_13-12-47.546585,"100.56,53.46"
2024-05-28_13-12-47.575393,"111.36,57.53"
2024-05-28_13-12-47.608154,"75.38,58.74"
2024-05-28_13-12-47.640901,"69.89,57.43"
2024-05-28_13-12-47.673745,"81.48,82.82"
2024-05-28_13-12-47.706515,"79.52,96.97"
2024-05-28_13-12-47.739153,"65.22,85.60"
2024-05-28_13-12-47.771951,"84.03,92.27"
2024-05-28_13-12-47.800735,"92.13,83.75"
2024-05-28_13-12-47.833480,"101.15,75.30"
2024-05-28_13-12-47.866211,"97.18,47.78"
2024-05-28_13-12-47.898972,"107.11,59.66"
2024-05-28_13-12-47.931763,"61.36,59.11"
2024-05-28_13-12-47.964461,"69.44,56.32"
2024-05-28_13-12-47.997180,"79.19,78.55"
2024-05-28_13-12-48.026231,"85.40,80.71"
2024-05-28_13-12-48.058787,"75.73,98.25"
2024-05-28_13-12-48.091563,"79.55,88.56"
2024-05-28_13-12-48.124333,"74.86,96.82"
2024-05-28_13-12-48.157096,"108.79,60.19"
2024-05-28_13-12-48.189773,"91.01,55.11"
2024-05-28_13-12-48.222467,"93.89,58.00"
2024-05-28_13-12-48.251280,"67.87,57.79"
2024-05-28_13-12-48.284056,"79.88,55.90"
2024-05-28_13-12-48.316859,"72.57,90.14"
2024-05-28_13-12-48.349618,"64.90,89.48"
2024-05-28_13-12-48.382305,"86.11,92.16"
2024-05-28_13-12-48.415094,"87.67,80.16"
2024-05-28_13-12-48.447755,"99.74,79.42"
2024-05-28_13-12-48.476544,"112.76,57.75"
2024-05-28_13-12-48.509330,"92.99,55.00"
2024-05-28_13-12-48.542099,"80.09,57.34"
2024-05-28_13-12-48.574866,"76.23,60.46"
2024-05-28_13-12-48.607630,"78.73,52.52"
2024-05-28_13-12-48.640359,"82.28,95.72"
2024-05-28_13-12-48.673072,"73.00,81.12"
2024-05-28_13-12-48.701852,"91.18,85.83"
2024-05-28_13-12-48.734610,"103.57,70.47"
2024-05-28_13-12-48.767368,"92.22,69.79"
2024-05-28_13-12-48.800131,"105.82,53.99"
2024-05-28_13-12-48.832888,"92.12,54.30"
2024-05-28_13-12-48.865659,"66.48,58.04"
2024-05-28_13-12-48.898352,"71.04,59.46"
2024-05-28_13-12-48.927149,"75.07,88.65"
2024-05-28_13-12-48.959862,"84.96,86.88"
2024-05-28_13-12-48.992688,"83.23,87.35"
2024-05-28_13-12-49.025421,"96.57,90.94"
2024-05-28_13-12-49.058572,"106.33,82.49"
2024-05-28_13-12-49.090943,"75.85,54.84"
2024-05-28_13-12-49.123678,"101.03,55.93"
2024-05-28_13-12-49.152450,"78.54,59.21"
2024-05-28_13-12-49.185201,"80.63,54.61"
2024-05-28_13-12-49.217921,"67.32,106.52"
2024-05-28_13-12-49.250760,"80.64,82.60"
2024-05-28_13-12-49.283479,"72.79,88.59"
2024-05-28_13-12-49.316326,"92.81,81.95"
2024-05-28_13-12-49.348965,"98.06,81.86"
2024-05-28_13-12-49.377745,"105.22,69.55"
2024-05-28_13-12-49.410454,"98.60,52.36"
2024-05-28_13-12-49.443241,"93.32,54.79"
2024-05-28_13-12-49.475978,"71.63,63.20"
2024-05-28_13-12-49.508742,"74.68,59.53"
2024-05-28_13-12-49.541520,"63.69,78.11"
2024-05-28_13-12-49.574280,"82.50,81.04"
2024-05-28_13-12-49.602983,"91.18,85.02"
2024-05-28_13-12-49.635747,"99.62,95.07"
2024-05-28_13-12-49.668524,"91.18,80.13"
2024-05-28_13-12-49.701351,"107.86,52.39"
2024-05-28_13-12-49.734068,"105.54,57.53"
2024-05-28_13-12-49.766827,"80.76,52.19"
2024-05-28_13-12-49.799556,"70.14,62.43"
2024-05-28_13-12-49.828265,"77.05,87.99"
2024-05-28_13-12-49.861023,"78.12,92.92"
2024-05-28_13-12-49.893791,"79.47,87.58"
2024-05-28_13-12-49.926600,"87.46,88.75"
2024-05-28_13-12-49.959370,"96.81,88.10"
2024-05-28_13-12-49.992141,"101.39,70.98"
2024-05-28_13-12-50.024917,"101.44,53.46"
2024-05-28_13-12-50.053608,"98.54,60.40"
2024-05-28_13-12-50.086398,"67.33,58.37"
2024-05-28_13-12-50.119108,"82.32,56.09"
2024-05-28_13-12-50.151887,"71.50,78.67"
2024-05-28_13-12-50.184632,"86.77,89.35"
2024-05-28_13-12-50.217422,"84.88,91.85"
2024-05-28_13-12-50.250136,"89.62,79.08"
2024-05-28_13-12-50.278845,"90.79,89.33"
2024-05-28_13-12-50.311647,"86.05,74.34"
2024-05-28_13-12-50.344396,"104.07,47.43"
2024-05-28_13-12-50.377160,"87.17,61.81"
2024-05-28_13-12-50.410009,"57.90,59.66"
2024-05-28_13-12-50.442752,"75.73,55.92"
2024-05-28_13-12-50.475427,"81.50,91.87"
2024-05-28_13-12-50.508131,"82.78,79.09"
2024-05-28_13-12-50.536906,"99.54,94.84"
2024-05-28_13-12-50.569732,"94.72,84.42"
2024-05-28_13-12-50.602533,"103.47,69.29"
2024-05-28_13-12-50.635280,"107.26,58.08"
2024-05-28_13-12-50.668063,"93.99,57.16"
2024-05-28_13-12-50.700899,"77.40,57.35"
2024-05-28_13-12-50.733608,"82.32,56.27"
2024-05-28_13-12-50.762360,"73.26,76.22"
2024-05-28_13-12-50.795143,"72.98,99.45"
2024-05-28_13-12-50.827786,"73.66,82.30"
2024-05-28_13-12-50.860498,"93.40,84.05"
2024-05-28_13-12-50.893282,"99.15,74.80"
2024-05-28_13-12-50.926014,"97.41,64.86"
2024-05-28_13-12-50.959040,"111.66,58.05"
2024-05-28_13-12-50.987664,"84.98,56.66"
2024-05-28_13-12-51.020443,"86.54,55.48"
2024-05-28_13-12-51.053076,"76.21,58.43"
2024-05-28_13-12-51.085853,"78.83,77.84"
2024-05-28_13-12-51.118638,"76.78,98.68"
2024-05-28_13-12-51.151295,"85.89,89.14"
2024-05-28_13-12-51.183959,"92.65,82.93"
2024-05-28_13-12-51.212801,"102.14,78.62"
2024-05-28_13-12-51.245597,"94.15,70.33"
2024-05-28_13-12-51.278360,"102.96,54.70"
2024-05-28_13-12-51.311165,"82.35,56.02"
2024-05-28_13-12-51.343969,"70.40,54.67"
2024-05-28_13-12-51.376657,"84.38,66.08"
2024-05-28_13-12-51.409306,"81.45,84.32"
2024-05-28_13-12-51.438113,"73.03,86.79"
2024-05-28_13-12-51.470839,"82.69,85.85"
2024-05-28_13-12-51.503627,"99.98,80.42"
2024-05-28_13-12-51.536389,"111.18,70.32"
2024-05-28_13-12-51.569141,"91.67,55.37"
2024-05-28_13-12-51.601901,"107.06,55.21"
2024-05-28_13-12-51.634596,"72.66,59.04"
2024-05-28_13-12-51.663603,"78.13,53.04"
2024-05-28_13-12-51.696205,"66.41,100.22"
2024-05-28_13-12-51.728878,"79.31,83.48"
2024-05-28_13-12-51.761681,"89.78,87.43"
2024-05-28_13-12-51.794424,"97.53,87.65"
2024-05-28_13-12-51.827211,"92.00,85.47"
2024-05-28_13-12-51.859904,"108.18,69.26"
2024-05-28_13-12-51.888663,"98.84,53.17"
2024-05-28_13-12-51.921426,"87.33,54.17"
2024-05-28_13-12-51.954192,"66.64,61.55"
2024-05-28_13-12-51.986960,"86.37,60.85"
2024-05-28_13-12-52.019725,"70.17,74.28"
2024-05-28_13-12-52.052502,"82.40,81.58"
2024-05-28_13-12-52.085189,"90.55,85.51"
2024-05-28_13-12-52.113974,"104.83,90.87"
2024-05-28_13-12-52.146749,"91.83,81.81"
2024-05-28_13-12-52.179510,"107.91,53.83"
2024-05-28_13-12-52.212332,"101.01,58.10"
2024-05-28_13-12-52.245094,"79.13,50.10"
2024-05-28_13-12-52.277769,"73.72,59.76"
2024-05-28_13-12-52.310489,"75.03,84.07"
2024-05-28_13-12-52.339251,"78.48,90.05"
2024-05-28_13-12-52.372022,"79.94,86.67"
2024-05-28_13-12-52.404991,"86.11,90.93"
2024-05-28_13-12-52.437626,"102.41,87.39"
2024-05-28_13-12-52.470309,"95.17,69.43"
2024-05-28_13-12-52.503197,"101.34,53.57"
2024-05-28_13-12-52.535810,"106.61,58.50"
2024-05-28_13-12-52.564506,"71.18,57.05"
2024-05-28_13-12-52.597292,"70.30,57.01"
2024-05-28_13-12-52.630082,"76.74,80.48"
2024-05-28_13-12-52.662851,"87.85,90.44"
2024-05-28_13-12-52.695627,"83.34,94.30"
2024-05-28_13-12-52.728426,"85.53,86.63"
2024-05-28_13-12-52.761079,"93.88,83.63"
2024-05-28_13-12-52.789813,"99.43,73.62"
2024-05-28_13-12-52.822635,"100.98,47.01"
2024-05-28_13-12-52.855342,"102.53,57.88"
2024-05-28_13-12-52.888131,"59.17,58.66"
2024-05-28_13-12-52.920924,"82.48,59.18"
2024-05-28_13-12-52.953651,"79.06,71.62"
2024-05-28_13-12-52.986361,"76.05,79.46"
2024-05-28_13-12-53.015176,"88.52,94.09"
2024-05-28_13-12-53.047907,"92.41,83.59"
2024-05-28_13-12-53.080720,"92.68,79.61"
2024-05-28_13-12-53.113447,"106.21,58.64"
2024-05-28_13-12-53.146244,"100.35,54.48"
2024-05-28_13-12-53.178959,"84.64,56.93"
2024-05-28_13-12-53.211695,"63.01,57.09"
2024-05-28_13-12-53.240428,"78.42,82.40"
2024-05-28_13-12-53.273359,"74.78,97.14"
2024-05-28_13-12-53.305983,"79.50,88.46"
2024-05-28_13-12-53.338753,"66.99,101.38"
2024-05-28_13-12-53.371490,"92.55,79.31"
2024-05-28_13-12-53.404256,"99.17,78.42"
2024-05-28_13-12-53.436974,"102.62,58.56"
2024-05-28_13-12-53.465755,"90.11,55.60"
2024-05-28_13-12-53.498512,"82.40,56.98"
2024-05-28_13-12-53.531267,"61.88,62.40"
2024-05-28_13-12-53.564018,"80.23,52.27"
2024-05-28_13-12-53.596784,"77.18,95.00"
2024-05-28_13-12-53.629522,"88.99,85.53"
2024-05-28_13-12-53.662262,"86.06,91.01"
2024-05-28_13-12-53.691007,"95.65,79.64"
2024-05-28_13-12-53.723829,"94.93,71.58"
2024-05-28_13-12-53.756575,"108.44,54.94"
2024-05-28_13-12-53.789333,"102.85,52.67"
2024-05-28_13-12-53.822126,"68.29,59.61"
2024-05-28_13-12-53.854832,"62.69,62.05"
2024-05-28_13-12-53.887569,"75.97,80.74"
2024-05-28_13-12-53.916356,"78.97,92.18"
2024-05-28_13-12-53.949130,"65.62,84.50"
2024-05-28_13-12-53.981858,"73.92,96.43"
2024-05-28_13-12-54.014594,"97.77,90.79"
2024-05-28_13-12-54.047346,"96.95,72.74"
2024-05-28_13-12-54.080129,"106.14,53.70"
2024-05-28_13-12-54.112828,"86.71,58.64"
2024-05-28_13-12-54.145564,"66.42,54.44"
2024-05-28_13-12-54.174321,"71.88,67.02"
2024-05-28_13-12-54.207120,"75.11,82.79"
2024-05-28_13-12-54.239907,"85.86,90.49"
2024-05-28_13-12-54.272634,"92.93,79.28"
2024-05-28_13-12-54.305380,"90.02,86.12"
2024-05-28_13-12-54.338177,"107.69,72.61"
2024-05-28_13-12-54.370871,"100.04,53.15"
2024-05-28_13-12-54.399606,"101.51,53.50"
2024-05-28_13-12-54.432395,"79.76,62.10"
2024-05-28_13-12-54.465210,"77.49,59.13"
2024-05-28_13-12-54.497944,"66.43,98.52"
2024-05-28_13-12-54.530684,"80.90,82.96"
2024-05-28_13-12-54.563461,"78.07,73.50"
2024-05-28_13-12-54.596154,"89.36,93.40"
2024-05-28_13-12-54.624910,"92.64,73.80"
2024-05-28_13-12-54.657696,"105.99,68.33"
2024-05-28_13-12-54.690468,"98.60,57.44"
2024-05-28_13-12-54.723222,"87.35,50.71"
2024-05-28_13-12-54.755983,"72.44,63.04"
2024-05-28_13-12-54.788731,"69.49,60.15"
2024-05-28_13-12-54.821433,"66.86,81.27"
2024-05-28_13-12-54.850217,"90.85,87.34"
2024-05-28_13-12-54.883025,"82.92,87.29"
2024-05-28_13-12-54.915789,"97.62,89.39"
2024-05-28_13-12-54.948579,"97.51,78.78"
2024-05-28_13-12-54.981345,"99.45,53.21"
2024-05-28_13-12-55.014066,"111.73,57.82"
2024-05-28_13-12-55.046810,"75.47,58.25"
2024-05-28_13-12-55.075651,"73.11,55.62"
2024-05-28_13-12-55.108288,"81.49,87.89"
2024-05-28_13-12-55.141092,"82.15,83.10"
2024-05-28_13-12-55.173871,"63.64,96.51"
2024-05-28_13-12-55.206557,"81.51,84.95"
2024-05-28_13-12-55.239334,"99.44,80.17"
2024-05-28_13-12-55.272013,"92.98,71.19"
2024-05-28_13-12-55.300804,"98.99,47.26"
2024-05-28_13-12-55.333580,"108.40,58.39"
2024-05-28_13-12-55.366415,"67.12,59.38"
2024-05-28_13-12-55.399201,"70.65,58.07"
2024-05-28_13-12-55.431975,"78.56,76.29"
2024-05-28_13-12-55.464658,"81.58,82.63"
2024-05-28_13-12-55.497303,"84.36,95.58"
2024-05-28_13-12-55.526223,"87.19,85.67"
2024-05-28_13-12-55.558962,"88.68,84.26"
2024-05-28_13-12-55.591699,"107.51,73.85"
2024-05-28_13-12-55.624420,"92.79,54.57"
2024-05-28_13-12-55.657199,"95.84,55.91"
2024-05-28_13-12-55.689902,"70.21,58.02"
2024-05-28_13-12-55.722619,"82.37,54.81"
2024-05-28_13-12-55.752012,"77.47,92.12"
2024-05-28_13-12-55.784234,"66.31,86.54"
2024-05-28_13-12-55.817009,"72.52,90.94"
2024-05-28_13-12-55.849757,"82.04,86.60"
2024-05-28_13-12-55.882465,"90.31,81.99"
2024-05-28_13-12-55.915237,"100.18,57.46"
2024-05-28_13-12-55.947937,"93.34,55.48"
2024-05-28_13-12-55.976710,"83.61,59.12"
2024-05-28_13-12-56.009448,"62.85,60.85"
2024-05-28_13-12-56.042210,"82.59,53.74"
2024-05-28_13-12-56.075043,"68.34,100.42"
2024-05-28_13-12-56.107776,"71.03,84.74"
2024-05-28_13-12-56.140496,"86.12,93.67"
2024-05-28_13-12-56.173205,"103.37,82.81"
2024-05-28_13-12-56.202010,"91.81,81.06"
2024-05-28_13-12-56.234799,"107.43,53.84"
2024-05-28_13-12-56.267536,"101.20,52.25"
2024-05-28_13-12-56.300290,"78.63,57.56"
2024-05-28_13-12-56.333056,"65.15,62.34"
2024-05-28_13-12-56.365813,"80.26,67.50"
2024-05-28_13-12-56.398479,"73.40,82.29"
2024-05-28_13-12-56.427252,"71.16,83.54"
2024-05-28_13-12-56.460055,"88.00,94.25"
2024-05-28_13-12-56.492902,"97.88,90.24"
2024-05-28_13-12-56.525582,"87.40,72.43"
2024-05-28_13-12-56.558458,"108.56,53.46"
2024-05-28_13-12-56.591071,"99.08,58.97"
2024-05-28_13-12-56.623768,"72.39,50.48"
2024-05-28_13-12-56.652552,"82.69,61.67"
2024-05-28_13-12-56.685325,"71.45,73.45"
2024-05-28_13-12-56.718092,"82.00,91.79"
2024-05-28_13-12-56.750902,"93.35,85.06"
2024-05-28_13-12-56.783624,"92.56,87.83"
2024-05-28_13-12-56.816390,"100.94,79.78"
2024-05-28_13-12-56.849110,"104.26,53.89"
2024-05-28_13-12-56.877808,"98.45,53.67"
2024-05-28_13-12-56.910611,"98.40,59.86"
2024-05-28_13-12-56.943366,"63.43,58.82"
2024-05-28_13-12-56.976170,"76.07,81.60"
2024-05-28_13-12-57.008976,"69.86,83.92"
2024-05-28_13-12-57.041719,"83.07,88.74"
2024-05-28_13-12-57.074404,"82.67,102.15"
2024-05-28_13-12-57.103130,"92.37,79.01"
2024-05-28_13-12-57.135923,"102.02,78.95"
2024-05-28_13-12-57.168716,"97.84,58.10"
2024-05-28_13-12-57.201442,"103.93,47.43"
2024-05-28_13-12-57.234224,"86.42,60.79"
2024-05-28_13-12-57.266982,"57.25,59.02"
2024-05-28_13-12-57.299684,"76.14,79.95"
2024-05-28_13-12-57.328406,"79.71,89.07"
2024-05-28_13-12-57.361219,"80.94,78.83"
2024-05-28_13-12-57.393965,"98.70,99.47"
2024-05-28_13-12-57.426734,"88.11,80.60"
2024-05-28_13-12-57.459523,"100.41,81.55"
2024-05-28_13-12-57.492301,"108.71,57.72"
2024-05-28_13-12-57.524982,"90.02,55.67"
2024-05-28_13-12-57.553706,"74.63,57.56"
2024-05-28_13-12-57.586479,"75.49,60.97"
2024-05-28_13-12-57.619257,"72.35,98.83"
2024-05-28_13-12-57.652078,"82.87,93.80"
2024-05-28_13-12-57.684821,"73.41,84.36"
2024-05-28_13-12-57.717587,"85.79,86.80"
2024-05-28_13-12-57.750258,"89.69,73.60"
2024-05-28_13-12-57.782970,"103.11,67.50"
2024-05-28_13-12-57.811771,"113.53,57.97"
2024-05-28_13-12-57.844531,"91.38,55.36"
2024-05-28_13-12-57.877330,"74.71,58.38"
2024-05-28_13-12-57.910083,"74.05,68.86"
2024-05-28_13-12-57.942858,"74.23,91.01"
2024-05-28_13-12-57.975568,"83.76,95.64"
2024-05-28_13-12-58.008255,"75.26,80.68"
2024-05-28_13-12-58.037074,"93.91,82.25"
2024-05-28_13-12-58.069821,"107.48,73.60"
2024-05-28_13-12-58.102608,"96.59,71.33"
2024-05-28_13-12-58.135355,"104.34,53.43"
2024-05-28_13-12-58.168231,"82.03,54.15"
2024-05-28_13-12-58.200853,"68.62,56.16"
2024-05-28_13-12-58.233557,"81.46,61.26"
2024-05-28_13-12-58.262361,"82.20,82.43"
2024-05-28_13-12-58.295195,"74.19,88.28"
2024-05-28_13-12-58.327920,"83.64,84.38"
2024-05-28_13-12-58.360685,"103.86,79.39"
2024-05-28_13-12-58.393428,"104.46,71.01"
2024-05-28_13-12-58.426192,"92.35,55.97"
2024-05-28_13-12-58.458872,"102.51,54.62"
2024-05-28_13-12-58.487678,"68.17,59.53"
2024-05-28_13-12-58.520411,"77.89,53.57"
2024-05-28_13-12-58.553301,"64.96,86.20"
2024-05-28_13-12-58.585948,"79.06,85.12"
2024-05-28_13-12-58.618698,"84.28,88.78"
2024-05-28_13-12-58.651497,"96.61,87.44"
2024-05-28_13-12-58.684206,"92.58,85.80"
2024-05-28_13-12-58.712962,"107.83,69.48"
2024-05-28_13-12-58.745775,"99.24,51.71"
2024-05-28_13-12-58.778533,"84.12,54.84"
2024-05-28_13-12-58.811314,"65.00,62.41"
2024-05-28_13-12-58.844033,"86.06,61.97"
2024-05-28_13-12-58.876762,"73.55,76.04"
2024-05-28_13-12-58.909461,"69.36,82.00"
2024-05-28_13-12-58.938275,"91.44,82.95"
2024-05-28_13-12-58.971028,"102.48,93.42"
2024-05-28_13-12-59.003788,"82.68,80.40"
2024-05-28_13-12-59.036565,"109.09,52.69"
2024-05-28_13-12-59.069331,"101.07,57.10"
2024-05-28_13-12-59.102060,"75.44,51.02"
2024-05-28_13-12-59.134732,"70.70,63.84"
2024-05-28_13-12-59.163569,"75.52,83.09"
2024-05-28_13-12-59.196309,"75.64,91.21"
2024-05-28_13-12-59.229070,"78.06,89.26"
2024-05-28_13-12-59.261835,"84.52,93.55"
2024-05-28_13-12-59.294608,"92.02,87.10"
2024-05-28_13-12-59.327311,"98.39,69.63"
2024-05-28_13-12-59.360043,"100.61,53.82"
2024-05-28_13-12-59.388811,"101.54,57.83"
2024-05-28_13-12-59.421565,"67.45,58.33"
2024-05-28_13-12-59.454337,"71.67,57.53"
2024-05-28_13-12-59.487132,"74.61,67.67"
2024-05-28_13-12-59.519936,"91.23,90.20"
2024-05-28_13-12-59.552622,"85.08,95.80"
2024-05-28_13-12-59.585342,"87.61,86.02"
2024-05-28_13-12-59.614096,"94.35,85.48"
2024-05-28_13-12-59.646955,"99.81,60.67"
2024-05-28_13-12-59.679694,"88.67,47.92"
2024-05-28_13-12-59.712408,"98.63,59.55"
2024-05-28_13-12-59.745216,"58.40,60.70"
2024-05-28_13-12-59.777929,"82.75,67.17"
2024-05-28_13-12-59.810601,"74.45,80.96"
2024-05-28_13-12-59.839412,"80.17,79.84"
2024-05-28_13-12-59.872199,"86.95,93.15"
2024-05-28_13-12-59.904948,"90.48,80.55"
2024-05-28_13-12-59.937704,"95.90,79.31"
2024-05-28_13-12-59.970498,"104.95,58.33"
2024-05-28_13-13-00.003240,"98.07,54.79"
2024-05-28_13-13-00.035968,"82.83,59.13"
2024-05-28_13-13-00.064713,"64.35,57.50"
2024-05-28_13-13-00.097500,"77.66,54.71"
2024-05-28_13-13-00.130314,"78.31,99.13"
2024-05-28_13-13-00.163024,"71.69,86.07"
2024-05-28_13-13-00.195775,"79.07,94.39"
2024-05-28_13-13-00.228486,"85.18,80.05"
2024-05-28_13-13-00.261230,"100.40,80.29"
2024-05-28_13-13-00.289956,"112.71,58.24"
2024-05-28_13-13-00.322824,"88.38,55.25"
2024-05-28_13-13-00.355524,"79.40,58.18"
2024-05-28_13-13-00.388247,"75.89,61.35"
2024-05-28_13-13-00.421071,"78.92,64.60"
2024-05-28_13-13-00.453829,"78.99,98.28"
2024-05-28_13-13-00.486513,"70.65,83.26"
2024-05-28_13-13-00.515325,"90.70,85.40"
2024-05-28_13-13-00.548051,"99.88,83.92"
2024-05-28_13-13-00.580985,"91.04,70.76"
2024-05-28_13-13-00.613642,"75.29,55.97"
2024-05-28_13-13-00.646340,"90.68,56.34"
2024-05-28_13-13-00.679139,"67.64,58.02"
2024-05-28_13-13-00.711807,"72.14,75.22"
2024-05-28_13-13-00.740570,"74.42,92.17"
2024-05-28_13-13-00.773327,"85.25,88.17"
2024-05-28_13-13-00.806112,"84.93,88.80"
2024-05-28_13-13-00.838882,"99.95,90.76"
2024-05-28_13-13-00.871660,"109.94,68.63"
2024-05-28_13-13-00.904454,"88.09,55.13"
2024-05-28_13-13-00.937138,"108.85,55.78"
2024-05-28_13-13-00.965847,"72.82,60.03"
2024-05-28_13-13-00.998654,"77.92,52.58"
2024-05-28_13-13-01.031464,"64.57,101.77"
2024-05-28_13-13-01.064224,"82.34,83.39"
2024-05-28_13-13-01.096939,"74.83,87.32"
2024-05-28_13-13-01.129750,"93.99,90.03"
2024-05-28_13-13-01.162453,"89.78,86.05"
2024-05-28_13-13-01.195130,"107.01,52.52"
2024-05-28_13-13-01.223945,"98.38,51.89"
2024-05-28_13-13-01.256717,"87.84,54.73"
2024-05-28_13-13-01.289483,"68.54,63.16"
2024-05-28_13-13-01.322226,"86.25,59.29"
2024-05-28_13-13-01.354986,"72.98,84.75"
2024-05-28_13-13-01.387709,"70.71,83.30"
2024-05-28_13-13-01.420426,"89.77,83.51"
2024-05-28_13-13-01.449201,"106.07,93.39"
2024-05-28_13-13-01.481975,"94.84,71.96"
2024-05-28_13-13-01.514782,"109.04,53.56"
2024-05-28_13-13-01.547528,"100.11,58.09"
2024-05-28_13-13-01.580300,"77.24,51.20"
2024-05-28_13-13-01.612989,"70.57,61.57"
2024-05-28_13-13-01.645701,"72.24,62.34"
2024-05-28_13-13-01.674524,"83.34,88.71"
2024-05-28_13-13-01.707265,"93.53,86.50"
2024-05-28_13-13-01.740035,"90.50,86.21"
2024-05-28_13-13-01.772785,"100.22,91.59"
2024-05-28_13-13-01.805543,"102.48,70.24"
2024-05-28_13-13-01.838264,"97.33,53.22"
2024-05-28_13-13-01.870978,"95.41,60.37"
2024-05-28_13-13-01.899759,"62.51,60.94"
2024-05-28_13-13-01.932540,"73.73,77.69"
2024-05-28_13-13-01.965301,"73.22,82.70"
2024-05-28_13-13-01.998076,"84.86,87.71"
2024-05-28_13-13-02.030814,"98.77,98.13"
2024-05-28_13-13-02.063573,"82.42,80.06"
2024-05-28_13-13-02.096274,"108.17,81.25"
2024-05-28_13-13-02.125001,"97.47,57.42"
2024-05-28_13-13-02.157805,"104.98,47.09"
2024-05-28_13-13-02.190561,"77.41,63.19"
2024-05-28_13-13-02.223337,"71.17,59.38"
2024-05-28_13-13-02.256174,"68.69,97.09"
2024-05-28_13-13-02.288798,"83.92,89.53"
2024-05-28_13-13-02.321506,"68.50,79.37"
2024-05-28_13-13-02.350278,"101.80,88.43"
2024-05-28_13-13-02.383027,"92.41,74.39"
2024-05-28_13-13-02.415784,"100.25,70.37"
2024-05-28_13-13-02.448558,"102.84,57.08"
2024-05-28_13-13-02.481307,"79.89,57.21"
2024-05-28_13-13-02.514059,"70.46,59.56"
2024-05-28_13-13-02.546755,"85.24,59.06"
2024-05-28_13-13-02.575486,"79.35,75.29"
2024-05-28_13-13-02.608279,"73.32,94.75"
2024-05-28_13-13-02.641013,"82.15,87.75"
2024-05-28_13-13-02.673845,"89.72,82.83"
2024-05-28_13-13-02.706647,"91.90,72.09"
2024-05-28_13-13-02.739296,"96.45,47.55"
2024-05-28_13-13-02.771999,"107.47,57.22"
2024-05-28_13-13-02.800701,"69.31,59.43"
2024-05-28_13-13-02.833529,"70.63,56.59"
2024-05-28_13-13-02.866331,"81.29,96.14"
2024-05-28_13-13-02.899023,"83.72,83.88"
2024-05-28_13-13-02.931819,"73.98,94.68"
2024-05-28_13-13-02.964716,"87.79,79.98"
2024-05-28_13-13-02.997248,"91.13,85.54"
2024-05-28_13-13-03.026009,"110.59,72.85"
2024-05-28_13-13-03.058757,"95.89,54.70"
2024-05-28_13-13-03.091534,"106.77,56.97"
2024-05-28_13-13-03.124364,"71.09,57.16"
2024-05-28_13-13-03.157129,"68.26,55.63"
2024-05-28_13-13-03.189839,"76.19,83.82"
2024-05-28_13-13-03.222495,"81.99,85.00"
2024-05-28_13-13-03.251297,"88.73,83.53"
2024-05-28_13-13-03.284018,"89.20,82.75"
2024-05-28_13-13-03.316762,"95.02,86.75"
2024-05-28_13-13-03.349534,"109.95,59.16"
2024-05-28_13-13-03.382294,"95.35,55.08"
2024-05-28_13-13-03.415171,"88.84,57.04"
2024-05-28_13-13-03.447743,"67.16,60.54"
2024-05-28_13-13-03.476460,"84.16,75.63"
2024-05-28_13-13-03.509246,"73.98,97.60"
2024-05-28_13-13-03.542019,"86.04,84.72"
2024-05-28_13-13-03.574767,"88.00,90.08"
2024-05-28_13-13-03.607520,"97.83,82.42"
2024-05-28_13-13-03.640358,"99.42,83.22"
2024-05-28_13-13-03.672992,"108.54,53.84"
2024-05-28_13-13-03.705672,"99.56,54.63"
2024-05-28_13-13-03.734459,"68.16,57.50"
2024-05-28_13-13-03.767254,"74.95,62.91"
2024-05-28_13-13-03.799982,"76.97,71.75"
2024-05-28_13-13-03.832738,"84.70,88.36"
2024-05-28_13-13-03.865498,"71.97,81.59"
2024-05-28_13-13-03.898333,"90.95,92.02"
2024-05-28_13-13-03.930981,"104.07,90.16"
2024-05-28_13-13-03.959778,"93.03,56.55"
2024-05-28_13-13-03.992490,"96.02,55.00"
2024-05-28_13-13-04.025277,"96.53,57.52"
2024-05-28_13-13-04.058018,"68.72,52.59"
2024-05-28_13-13-04.090834,"75.88,86.01"
2024-05-28_13-13-04.123466,"69.79,85.05"
2024-05-28_13-13-04.156207,"87.59,87.37"
2024-05-28_13-13-04.184997,"83.75,84.82"
2024-05-28_13-13-04.217709,"94.70,85.10"
2024-05-28_13-13-04.250523,"99.48,80.03"
2024-05-28_13-13-04.283264,"96.25,52.85"
2024-05-28_13-13-04.316051,"97.57,53.27"
2024-05-28_13-13-04.348708,"90.53,61.50"
2024-05-28_13-13-04.381445,"63.30,59.55"
2024-05-28_13-13-04.410255,"71.18,61.05"
2024-05-28_13-13-04.442978,"80.45,82.54"
2024-05-28_13-13-04.475722,"73.21,87.24"
2024-05-28_13-13-04.508513,"98.01,92.19"
2024-05-28_13-13-04.541234,"89.20,83.94"
2024-05-28_13-13-04.573964,"102.49,67.37"
2024-05-28_13-13-04.606668,"99.72,57.64"
2024-05-28_13-13-04.635449,"105.11,48.17"
2024-05-28_13-13-04.668217,"75.76,60.96"
2024-05-28_13-13-04.700972,"71.41,59.46"
2024-05-28_13-13-04.733749,"67.57,100.15"
2024-05-28_13-13-04.766500,"88.95,86.40"
2024-05-28_13-13-04.799196,"81.84,80.35"
2024-05-28_13-13-04.831916,"99.70,90.55"
2024-05-28_13-13-04.860753,"96.69,71.06"
2024-05-28_13-13-04.893430,"97.07,69.57"
2024-05-28_13-13-04.926232,"105.32,58.15"
2024-05-28_13-13-04.958962,"85.49,55.54"
2024-05-28_13-13-04.991746,"69.83,57.22"
2024-05-28_13-13-05.024502,"73.45,59.05"
2024-05-28_13-13-05.057257,"76.00,77.00"
2024-05-28_13-13-05.085928,"82.62,94.02"
2024-05-28_13-13-05.118739,"86.13,87.05"
2024-05-28_13-13-05.151439,"97.83,79.49"
2024-05-28_13-13-05.184392,"91.22,81.53"
2024-05-28_13-13-05.216971,"96.99,47.65"
2024-05-28_13-13-05.249737,"113.47,59.75"
2024-05-28_13-13-05.282428,"65.28,57.52"
2024-05-28_13-13-05.311143,"69.52,56.74"
2024-05-28_13-13-05.343920,"82.00,70.27"
2024-05-28_13-13-05.376791,"82.92,80.85"
2024-05-28_13-13-05.409472,"70.17,94.37"
2024-05-28_13-13-05.442250,"86.19,91.63"
2024-05-28_13-13-05.475023,"99.61,82.23"
2024-05-28_13-13-05.507660,"103.49,73.62"
2024-05-28_13-13-05.536484,"95.85,54.34"
2024-05-28_13-13-05.569208,"99.13,55.90"
2024-05-28_13-13-05.601914,"64.54,56.46"
2024-05-28_13-13-05.634711,"81.28,56.51"
2024-05-28_13-13-05.667443,"78.02,80.16"
2024-05-28_13-13-05.700225,"72.26,83.90"
2024-05-28_13-13-05.732900,"88.30,82.75"
2024-05-28_13-13-05.761703,"91.74,83.34"
2024-05-28_13-13-05.794542,"95.26,87.67"
2024-05-28_13-13-05.827270,"96.37,59.41"
2024-05-28_13-13-05.859969,"96.11,55.82"
2024-05-28_13-13-05.892755,"94.47,55.19"
2024-05-28_13-13-05.925429,"64.61,60.32"
2024-05-28_13-13-05.958161,"85.27,79.43"
2024-05-28_13-13-05.986891,"73.54,97.18"
2024-05-28_13-13-06.019707,"73.66,82.69"
2024-05-28_13-13-06.052488,"89.36,85.14"
2024-05-28_13-13-06.085213,"101.62,80.85"
2024-05-28_13-13-06.117958,"91.63,80.73"
2024-05-28_13-13-06.150705,"108.02,53.27"
2024-05-28_13-13-06.183408,"100.86,52.85"
2024-05-28_13-13-06.212199,"75.56,55.75"
2024-05-28_13-13-06.244992,"62.13,64.82"
2024-05-28_13-13-06.277726,"78.99,63.22"
2024-05-28_13-13-06.310426,"77.96,89.53"
2024-05-28_13-13-06.343220,"87.20,82.72"
2024-05-28_13-13-06.376046,"90.96,92.33"
2024-05-28_13-13-06.408861,"105.25,89.25"
2024-05-28_13-13-06.437439,"85.47,56.14"
2024-05-28_13-13-06.470174,"106.70,53.95"
2024-05-28_13-13-06.502953,"95.23,58.22"
2024-05-28_13-13-06.535704,"67.42,52.22"
2024-05-28_13-13-06.568462,"76.52,90.70"
2024-05-28_13-13-06.601259,"69.92,84.67"
2024-05-28_13-13-06.633958,"83.73,88.81"
2024-05-28_13-13-06.662642,"83.63,84.92"
2024-05-28_13-13-06.695409,"95.76,84.21"
2024-05-28_13-13-06.728152,"100.57,80.86"
2024-05-28_13-13-06.760982,"96.21,53.34"
2024-05-28_13-13-06.793734,"98.57,53.84"
2024-05-28_13-13-06.827458,"95.98,58.56"
2024-05-28_13-13-06.859170,"73.41,58.12"
2024-05-28_13-13-06.887871,"74.83,81.97"
2024-05-28_13-13-06.920651,"72.19,80.70"
2024-05-28_13-13-06.953426,"91.59,86.91"
2024-05-28_13-13-06.986176,"95.62,100.28"
2024-05-28_13-13-07.019030,"84.08,78.77"
2024-05-28_13-13-07.051801,"103.44,70.48"
2024-05-28_13-13-07.084424,"73.59,58.80"
2024-05-28_13-13-07.117129,"104.93,47.45"
2024-05-28_13-13-07.145924,"82.77,62.73"
2024-05-28_13-13-07.178701,"58.14,60.00"
2024-05-28_13-13-07.211417,"73.90,73.07"
2024-05-28_13-13-07.244177,"86.31,89.54"
2024-05-28_13-13-07.276947,"68.13,79.20"
2024-05-28_13-13-07.309625,"99.50,95.76"
2024-05-28_13-13-07.342327,"94.45,82.45"
2024-05-28_13-13-07.371134,"97.97,82.67"
2024-05-28_13-13-07.403911,"106.45,57.62"
2024-05-28_13-13-07.436642,"91.08,55.56"
2024-05-28_13-13-07.469404,"73.15,58.65"
2024-05-28_13-13-07.502215,"73.41,59.24"
2024-05-28_13-13-07.534887,"78.14,78.29"
2024-05-28_13-13-07.567570,"83.99,94.71"
2024-05-28_13-13-07.596376,"87.67,78.39"
2024-05-28_13-13-07.629123,"97.65,78.57"
2024-05-28_13-13-07.661913,"75.67,79.02"
2024-05-28_13-13-07.694654,"100.70,65.75"
2024-05-28_13-13-07.727421,"113.82,57.61"
2024-05-28_13-13-07.760143,"68.60,57.93"
2024-05-28_13-13-07.792832,"69.83,58.23"
2024-05-28_13-13-07.821618,"81.32,85.93"
2024-05-28_13-13-07.854374,"84.25,82.11"
2024-05-28_13-13-07.887167,"74.49,94.43"
2024-05-28_13-13-07.919914,"86.83,86.56"
2024-05-28_13-13-07.952629,"93.57,83.52"
2024-05-28_13-13-07.985404,"109.43,74.64"
2024-05-28_13-13-08.018088,"96.37,53.96"
2024-05-28_13-13-08.046860,"96.24,54.16"
2024-05-28_13-13-08.079606,"65.13,56.96"
2024-05-28_13-13-08.112410,"81.60,56.93"
2024-05-28_13-13-08.145171,"78.27,93.13"
2024-05-28_13-13-08.178008,"68.97,85.49"
2024-05-28_13-13-08.210636,"80.33,86.99"
2024-05-28_13-13-08.243341,"90.57,78.33"
2024-05-28_13-13-08.272123,"98.22,75.87"
2024-05-28_13-13-08.304890,"111.83,58.64"
2024-05-28_13-13-08.337622,"94.60,54.33"
2024-05-28_13-13-08.370437,"88.78,55.11"
2024-05-28_13-13-08.403171,"75.50,60.16"
2024-05-28_13-13-08.435926,"83.50,74.64"
2024-05-28_13-13-08.468612,"73.83,94.98"
2024-05-28_13-13-08.497337,"87.15,83.85"
2024-05-28_13-13-08.530125,"89.22,87.62"
2024-05-28_13-13-08.562862,"98.69,80.94"
2024-05-28_13-13-08.595668,"98.49,83.45"
2024-05-28_13-13-08.628393,"107.36,53.70"
2024-05-28_13-13-08.661179,"100.28,52.65"
2024-05-28_13-13-08.693798,"71.04,56.23"
2024-05-28_13-13-08.722535,"76.45,64.18"
2024-05-28_13-13-08.755344,"77.02,64.57"
2024-05-28_13-13-08.788184,"81.57,87.54"
2024-05-28_13-13-08.820871,"84.83,82.95"
2024-05-28_13-13-08.853642,"87.46,91.59"
2024-05-28_13-13-08.886421,"103.42,90.57"
2024-05-28_13-13-08.919091,"94.90,57.30"
2024-05-28_13-13-08.951795,"107.85,53.15"
2024-05-28_13-13-08.980638,"95.23,57.14"
2024-05-28_13-13-09.013372,"69.73,54.04"
2024-05-28_13-13-09.046120,"81.95,61.51"
2024-05-28_13-13-09.078918,"70.11,79.39"
2024-05-28_13-13-09.111732,"83.27,91.93"
2024-05-28_13-13-09.144331,"66.36,90.57"
2024-05-28_13-13-09.177047,"93.87,84.82"
2024-05-28_13-13-09.205869,"93.57,81.90"
2024-05-28_13-13-09.238615,"97.13,53.49"
2024-05-28_13-13-09.271408,"98.20,53.63"
2024-05-28_13-13-09.304128,"88.89,62.77"
2024-05-28_13-13-09.336890,"63.57,59.19"
2024-05-28_13-13-09.369650,"74.06,60.16"
2024-05-28_13-13-09.402297,"70.89,82.26"
2024-05-28_13-13-09.431092,"89.92,88.45"
2024-05-28_13-13-09.463827,"95.83,100.61"
2024-05-28_13-13-09.496680,"79.75,79.53"
2024-05-28_13-13-09.529402,"103.11,82.67"
2024-05-28_13-13-09.562161,"99.31,58.28"
2024-05-28_13-13-09.594845,"102.19,46.92"
2024-05-28_13-13-09.627613,"84.35,61.84"
2024-05-28_13-13-09.656309,"55.67,60.64"
2024-05-28_13-13-09.689101,"71.97,70.02"
2024-05-28_13-13-09.721856,"86.81,89.61"
2024-05-28_13-13-09.754629,"69.35,79.44"
2024-05-28_13-13-09.787382,"99.15,93.09"
2024-05-28_13-13-09.820080,"94.74,82.45"
2024-05-28_13-13-09.852939,"103.10,82.12"
2024-05-28_13-13-09.881686,"108.41,57.77"
2024-05-28_13-13-09.914336,"99.23,56.50"
2024-05-28_13-13-09.947122,"77.10,57.52"
2024-05-28_13-13-09.979858,"75.49,57.87"
2024-05-28_13-13-10.012594,"76.22,60.27"
2024-05-28_13-13-10.045363,"83.24,94.81"
2024-05-28_13-13-10.078026,"72.09,84.22"
2024-05-28_13-13-10.106807,"89.06,87.74"
2024-05-28_13-13-10.139600,"91.07,80.16"
2024-05-28_13-13-10.172416,"102.13,65.28"
2024-05-28_13-13-10.205150,"111.50,58.78"
2024-05-28_13-13-10.237863,"90.19,56.39"
2024-05-28_13-13-10.270605,"72.96,57.39"
2024-05-28_13-13-10.303296,"73.78,68.33"
2024-05-28_13-13-10.332049,"75.16,91.37"
2024-05-28_13-13-10.364861,"81.23,96.68"
2024-05-28_13-13-10.397723,"80.74,90.89"
2024-05-28_13-13-10.430358,"82.68,87.81"
2024-05-28_13-13-10.463096,"102.27,79.85"
2024-05-28_13-13-10.495845,"94.88,70.29"
2024-05-28_13-13-10.528581,"109.99,54.15"
2024-05-28_13-13-10.557313,"76.91,56.84"
2024-05-28_13-13-10.590063,"66.65,56.24"
2024-05-28_13-13-10.623049,"81.02,84.17"
2024-05-28_13-13-10.655686,"77.87,85.52"
2024-05-28_13-13-10.688366,"66.55,89.16"
2024-05-28_13-13-10.721104,"90.83,77.86"
2024-05-28_13-13-10.753809,"91.65,48.23"
2024-05-28_13-13-10.782539,"107.08,57.34"
2024-05-28_13-13-10.815330,"86.64,55.07"
2024-05-28_13-13-10.848095,"85.13,56.95"
2024-05-28_13-13-10.880848,"70.75,58.82"
2024-05-28_13-13-10.913628,"84.96,53.78"
2024-05-28_13-13-10.946411,"68.38,100.79"
2024-05-28_13-13-10.979057,"77.16,82.03"
2024-05-28_13-13-11.007802,"85.81,87.33"
2024-05-28_13-13-11.040623,"97.07,59.08"
2024-05-28_13-13-11.073456,"85.67,55.27"
2024-05-28_13-13-11.106145,"83.64,57.76"
2024-05-28_13-13-11.138894,"86.68,53.29"
2024-05-28_13-13-11.171593,"87.49,56.65"
2024-05-28_13-13-11.204294,"70.27,60.27"
2024-05-28_13-13-11.233026,"84.00,66.01"
2024-05-28_13-13-11.265805,"69.11,95.10"
2024-05-28_13-13-11.298574,"76.79,81.91"
2024-05-28_13-13-11.331303,"80.68,86.11"
2024-05-28_13-13-11.364102,"102.78,59.00"
2024-05-28_13-13-11.396856,"80.75,54.02"
2024-05-28_13-13-11.429559,"101.32,55.25"
2024-05-28_13-13-11.458273,"98.63,58.17"
2024-05-28_13-13-11.491072,"83.05,51.42"
2024-05-28_13-13-11.523832,"76.81,58.81"
2024-05-28_13-13-11.556635,"74.65,73.91"
2024-05-28_13-13-11.589329,"73.89,94.70"
2024-05-28_13-13-11.622086,"84.36,85.35"
2024-05-28_13-13-11.654815,"89.35,85.52"
2024-05-28_13-13-11.683524,"92.94,54.42"
2024-05-28_13-13-11.716362,"92.28,51.94"
2024-05-28_13-13-11.749068,"92.91,54.23"
2024-05-28_13-13-11.781808,"92.87,59.01"
2024-05-28_13-13-11.814771,"81.56,55.93"
2024-05-28_13-13-11.847800,"77.78,66.70"
2024-05-28_13-13-11.887436,"80.44,68.54"
2024-05-28_13-13-11.912761,"77.27,75.16"
2024-05-28_13-13-11.941577,"77.19,92.52"
2024-05-28_13-13-11.974386,"75.86,66.04"
2024-05-28_13-13-12.007128,"80.52,61.61"
2024-05-28_13-13-12.039927,"89.94,58.37"
2024-05-28_13-13-12.072600,"94.24,48.36"
2024-05-28_13-13-12.105345,"95.79,57.75"
2024-05-28_13-13-12.137985,"74.61,57.39"
2024-05-28_13-13-12.166754,"74.29,57.09"
2024-05-28_13-13-12.199579,"80.42,89.69"
2024-05-28_13-13-12.232376,"74.26,92.20"
2024-05-28_13-13-12.265083,"84.45,90.97"
2024-05-28_13-13-12.297831,"82.76,55.61"
2024-05-28_13-13-12.330512,"87.93,53.82"
2024-05-28_13-13-12.363262,"102.08,59.36"
2024-05-28_13-13-12.392008,"90.59,54.83"
2024-05-28_13-13-12.424969,"87.90,55.95"
2024-05-28_13-13-12.457702,"87.60,62.26"
2024-05-28_13-13-12.490456,"91.44,55.52"
2024-05-28_13-13-12.523188,"79.69,81.68"
2024-05-28_13-13-12.555847,"68.16,66.68"
2024-05-28_13-13-12.588495,"77.91,71.74"
2024-05-28_13-13-12.617475,"82.18,60.06"
2024-05-28_13-13-12.650049,"84.43,78.63"
2024-05-28_13-13-12.682851,"91.65,62.20"
2024-05-28_13-13-12.715596,"93.35,67.26"
2024-05-28_13-13-12.748342,"94.84,72.82"
2024-05-28_13-13-12.781047,"79.98,61.80"
2024-05-28_13-13-12.813722,"78.80,50.47"
2024-05-28_13-13-12.842572,"69.32,86.45"
2024-05-28_13-13-12.875755,"65.52,79.83"
2024-05-28_13-13-12.908120,"88.89,91.78"
2024-05-28_13-13-12.940814,"108.34,90.10"
2024-05-28_13-13-12.976011,"100.17,58.67"
2024-05-28_13-13-13.006284,"83.36,59.20"
2024-05-28_13-13-13.038992,"103.50,52.05"
2024-05-28_13-13-13.067874,"93.53,56.99"
2024-05-28_13-13-13.100578,"82.76,54.89"
2024-05-28_13-13-13.133307,"79.12,76.52"
2024-05-28_13-13-13.166333,"83.00,66.56"
2024-05-28_13-13-13.198843,"68.92,79.02"
2024-05-28_13-13-13.231599,"72.85,86.76"
2024-05-28_13-13-13.264255,"67.45,71.98"
2024-05-28_13-13-13.293072,"65.35,89.09"
2024-05-28_13-13-13.325861,"100.03,84.36"
2024-05-28_13-13-13.358526,"76.52,74.49"
2024-05-28_13-13-13.391347,"74.34,80.88"
2024-05-28_13-13-13.424082,"78.91,68.94"
2024-05-28_13-13-13.456885,"91.86,75.13"
2024-05-28_13-13-13.489464,"99.94,74.72"
2024-05-28_13-13-13.518359,"66.86,104.52"
2024-05-28_13-13-13.551065,"81.32,93.93"
2024-05-28_13-13-13.583850,"61.64,74.79"
2024-05-28_13-13-13.616674,"59.28,78.08"
2024-05-28_13-13-13.649379,"84.32,72.32"
2024-05-28_13-13-13.682041,"78.65,73.67"
2024-05-28_13-13-13.714730,"83.50,84.13"
2024-05-28_13-13-13.751458,"102.32,71.47"
2024-05-28_13-13-13.776337,"77.69,70.87"
2024-05-28_13-13-13.809122,"90.99,80.80"
2024-05-28_13-13-13.842005,"65.57,87.53"
2024-05-28_13-13-13.874794,"71.19,92.54"
2024-05-28_13-13-13.907280,"68.74,75.56"
2024-05-28_13-13-13.940002,"63.60,75.98"
2024-05-28_13-13-13.968758,"78.37,79.94"
2024-05-28_13-13-14.001532,"92.36,67.67"
2024-05-28_13-13-14.034413,"89.16,82.27"
2024-05-28_13-13-14.067117,"101.87,71.31"
2024-05-28_13-13-14.099975,"93.71,71.68"
2024-05-28_13-13-14.132521,"91.49,89.59"
2024-05-28_13-13-14.165255,"73.27,79.41"
2024-05-28_13-13-14.194010,"75.80,92.60"
2024-05-28_13-13-14.226810,"60.35,74.28"
2024-05-28_13-13-14.259583,"74.45,75.29"
2024-05-28_13-13-14.292352,"70.90,83.95"
2024-05-28_13-13-14.325092,"80.36,68.35"
2024-05-28_13-13-14.357797,"74.37,76.85"
2024-05-28_13-13-14.390469,"103.27,69.86"
2024-05-28_13-13-14.419427,"93.04,65.49"
2024-05-28_13-13-14.452121,"74.04,100.75"
2024-05-28_13-13-14.484830,"64.65,86.65"
2024-05-28_13-13-14.517601,"82.07,81.76"
2024-05-28_13-13-14.550363,"63.33,81.04"
2024-05-28_13-13-14.583061,"72.72,67.86"
2024-05-28_13-13-14.615814,"74.22,81.84"
2024-05-28_13-13-14.644551,"84.66,69.79"
2024-05-28_13-13-14.677315,"75.30,75.67"
2024-05-28_13-13-14.710072,"93.23,81.90"
2024-05-28_13-13-14.742855,"85.70,69.68"
2024-05-28_13-13-14.775586,"86.72,97.12"
2024-05-28_13-13-14.808329,"63.94,82.02"
2024-05-28_13-13-14.841000,"93.18,80.47"
2024-05-28_13-13-14.869737,"62.23,82.95"
2024-05-28_13-13-14.902623,"75.77,70.59"
2024-05-28_13-13-14.935322,"75.60,75.00"
2024-05-28_13-13-14.968177,"76.38,71.06"
2024-05-28_13-13-15.001032,"91.40,75.50"
2024-05-28_13-13-15.033594,"96.89,71.05"
2024-05-28_13-13-15.066288,"99.59,71.38"
2024-05-28_13-13-15.098924,"73.12,101.79"
2024-05-28_13-13-15.127830,"72.22,83.58"
2024-05-28_13-13-15.160558,"81.99,82.02"
2024-05-28_13-13-15.193324,"60.16,81.96"
2024-05-28_13-13-15.226101,"76.84,70.70"
2024-05-28_13-13-15.258868,"77.77,75.48"
2024-05-28_13-13-15.291497,"72.90,80.12"
2024-05-28_13-13-15.320203,"89.64,67.60"
2024-05-28_13-13-15.353096,"93.87,79.81"
2024-05-28_13-13-15.385764,"97.91,67.32"
2024-05-28_13-13-15.418595,"74.78,93.76"
2024-05-28_13-13-15.451314,"81.93,88.85"
2024-05-28_13-13-15.484113,"61.38,80.93"
2024-05-28_13-13-15.516857,"57.97,77.18"
2024-05-28_13-13-15.549401,"79.18,72.51"
2024-05-28_13-13-15.578240,"91.63,74.89"
2024-05-28_13-13-15.611097,"78.25,83.16"
2024-05-28_13-13-15.643832,"96.61,52.34"
2024-05-28_13-13-15.676573,"93.95,74.44"
2024-05-28_13-13-15.709333,"96.70,81.24"
2024-05-28_13-13-15.742026,"76.91,86.65"
2024-05-28_13-13-15.774721,"78.28,87.20"
2024-05-28_13-13-15.803522,"76.57,73.93"
2024-05-28_13-13-15.836293,"64.10,75.92"
2024-05-28_13-13-15.869051,"78.49,80.96"
2024-05-28_13-13-15.901830,"92.50,66.31"
2024-05-28_13-13-15.934550,"84.37,81.51"
2024-05-28_13-13-15.967274,"92.67,75.71"
2024-05-28_13-13-15.999970,"94.60,82.43"
2024-05-28_13-13-16.028796,"94.31,95.00"
2024-05-28_13-13-16.061549,"67.20,81.71"
2024-05-28_13-13-16.094386,"83.52,82.26"
2024-05-28_13-13-16.127091,"61.00,75.14"
2024-05-28_13-13-16.159826,"67.57,76.64"
2024-05-28_13-13-16.192524,"70.93,83.05"
2024-05-28_13-13-16.225183,"84.87,69.18"
2024-05-28_13-13-16.254017,"75.22,76.93"
2024-05-28_13-13-16.286795,"101.23,85.70"
2024-05-28_13-13-16.319498,"90.67,67.85"
2024-05-28_13-13-16.352384,"90.99,93.44"
2024-05-28_13-13-16.385119,"69.23,81.72"
2024-05-28_13-13-16.417834,"80.06,82.06"
2024-05-28_13-13-16.450522,"60.64,82.19"
2024-05-28_13-13-16.479225,"68.03,69.18"
2024-05-28_13-13-16.512053,"75.09,81.57"
2024-05-28_13-13-16.544787,"85.70,70.00"
2024-05-28_13-13-16.577561,"75.23,76.66"
2024-05-28_13-13-16.610364,"86.88,83.68"
2024-05-28_13-13-16.643008,"90.56,72.07"
2024-05-28_13-13-16.675749,"105.82,89.95"
2024-05-28_13-13-16.704492,"60.92,82.73"
2024-05-28_13-13-16.737359,"83.35,83.10"
2024-05-28_13-13-16.770134,"59.96,84.74"
2024-05-28_13-13-16.802822,"75.68,70.53"
2024-05-28_13-13-16.835529,"72.79,75.93"
2024-05-28_13-13-16.868265,"88.80,72.85"
2024-05-28_13-13-16.900961,"85.19,74.73"
2024-05-28_13-13-16.929760,"87.32,83.66"
2024-05-28_13-13-16.962577,"91.17,72.24"
2024-05-28_13-13-16.995263,"92.58,98.36"
2024-05-28_13-13-17.028081,"63.14,86.74"
2024-05-28_13-13-17.060856,"87.61,76.56"
2024-05-28_13-13-17.093665,"61.33,83.00"
2024-05-28_13-13-17.126662,"75.60,71.66"
2024-05-28_13-13-17.154999,"79.97,76.03"
2024-05-28_13-13-17.187783,"74.17,79.37"
2024-05-28_13-13-17.220544,"91.26,66.57"
2024-05-28_13-13-17.253333,"92.00,79.18"
2024-05-28_13-13-17.286075,"93.81,67.63"
2024-05-28_13-13-17.318782,"99.02,86.03"
2024-05-28_13-13-17.351453,"63.25,81.50"
2024-05-28_13-13-17.380228,"86.74,59.43"
2024-05-28_13-13-17.413036,"112.88,88.43"
2024-05-28_13-13-17.445803,"91.82,77.39"
2024-05-28_13-13-17.478548,"100.57,62.67"
2024-05-28_13-13-17.511301,"97.08,58.54"
2024-05-28_13-13-17.543985,"96.92,59.58"
2024-05-28_13-13-17.576800,"74.83,55.16"
2024-05-28_13-13-17.605476,"71.35,62.15"
2024-05-28_13-13-17.638334,"76.74,88.29"
2024-05-28_13-13-17.670996,"84.37,75.32"
2024-05-28_13-13-17.703782,"77.58,91.50"
2024-05-28_13-13-17.736545,"74.45,78.68"
2024-05-28_13-13-17.769286,"88.63,52.01"
2024-05-28_13-13-17.801999,"108.48,57.98"
2024-05-28_13-13-17.830671,"72.86,54.56"
2024-05-28_13-13-17.863526,"101.16,55.49"
2024-05-28_13-13-17.896295,"88.63,60.13"
2024-05-28_13-13-17.929158,"69.56,49.75"
2024-05-28_13-13-17.961865,"72.04,79.33"
2024-05-28_13-13-17.994567,"75.95,70.43"
2024-05-28_13-13-18.027250,"76.29,89.35"
2024-05-28_13-13-18.056031,"86.71,80.46"
2024-05-28_13-13-18.089037,"85.35,74.35"
2024-05-28_13-13-18.121656,"95.91,54.76"
2024-05-28_13-13-18.154290,"90.88,54.01"
2024-05-28_13-13-18.187065,"84.40,55.90"
2024-05-28_13-13-18.219808,"98.45,60.14"
2024-05-28_13-13-18.252570,"68.29,57.04"
2024-05-28_13-13-18.285428,"74.35,65.82"
2024-05-28_13-13-18.313977,"77.11,82.14"
2024-05-28_13-13-18.346810,"85.07,99.18"
2024-05-28_13-13-18.379530,"83.74,80.09"
2024-05-28_13-13-18.412449,"79.17,59.14"
2024-05-28_13-13-18.445062,"101.92,52.84"
2024-05-28_13-13-18.477812,"78.73,60.02"
2024-05-28_13-13-18.510410,"99.36,49.72"
2024-05-28_13-13-18.539184,"93.47,60.76"
2024-05-28_13-13-18.572068,"58.95,58.88"
2024-05-28_13-13-18.604710,"75.27,74.58"
2024-05-28_13-13-18.637524,"85.28,99.92"
2024-05-28_13-13-18.670283,"68.88,93.50"
2024-05-28_13-13-18.703026,"79.39,63.60"
2024-05-28_13-13-18.735652,"82.70,56.67"
2024-05-28_13-13-18.764506,"80.24,58.32"
2024-05-28_13-13-18.797266,"100.91,60.09"
2024-05-28_13-13-18.830068,"81.01,55.25"
2024-05-28_13-13-18.862775,"86.31,57.76"
2024-05-28_13-13-18.895515,"81.39,55.78"
2024-05-28_13-13-18.928239,"67.68,64.61"
2024-05-28_13-13-18.961006,"79.07,97.54"
2024-05-28_13-13-18.989747,"72.88,87.16"
2024-05-28_13-13-19.022493,"78.46,95.97"
2024-05-28_13-13-19.055277,"85.36,76.09"
2024-05-28_13-13-19.087954,"88.56,52.29"
2024-05-28_13-13-19.120814,"108.44,57.85"
2024-05-28_13-13-19.153487,"71.37,54.76"
2024-05-28_13-13-19.186162,"97.64,57.21"
2024-05-28_13-13-19.215025,"79.81,60.28"
2024-05-28_13-13-19.247793,"81.70,83.71"
2024-05-28_13-13-19.280438,"71.40,79.09"
2024-05-28_13-13-19.313205,"80.87,82.11"
2024-05-28_13-13-19.346102,"80.39,87.82"
2024-05-28_13-13-19.379080,"93.16,74.64"
2024-05-28_13-13-19.411481,"87.69,56.83"
2024-05-28_13-13-19.440508,"97.33,55.63"
2024-05-28_13-13-19.472977,"86.99,51.41"
2024-05-28_13-13-19.505726,"72.06,57.46"
2024-05-28_13-13-19.538521,"88.01,60.34"
2024-05-28_13-13-19.571284,"79.56,61.38"
2024-05-28_13-13-19.604106,"73.51,73.05"
2024-05-28_13-13-19.636754,"72.80,76.43"
2024-05-28_13-13-19.665458,"66.35,94.52"
2024-05-28_13-13-19.698307,"98.43,94.62"
2024-05-28_13-13-19.730964,"74.82,61.05"
2024-05-28_13-13-19.764072,"92.63,57.78"
2024-05-28_13-13-19.796539,"88.98,58.34"
2024-05-28_13-13-19.829341,"91.29,49.02"
2024-05-28_13-13-19.861919,"97.88,58.94"
2024-05-28_13-13-19.890716,"64.05,86.94"
2024-05-28_13-13-19.923508,"77.97,90.43"
2024-05-28_13-13-19.956260,"78.60,92.82"
2024-05-28_13-13-19.989021,"84.56,93.85"
2024-05-28_13-13-20.021820,"83.07,90.63"
2024-05-28_13-13-20.054578,"82.69,58.45"
2024-05-28_13-13-20.087472,"86.21,56.77"
2024-05-28_13-13-20.116050,"100.32,60.25"
2024-05-28_13-13-20.148838,"99.05,55.18"
2024-05-28_13-13-20.181494,"92.82,56.04"
2024-05-28_13-13-20.214267,"74.28,54.85"
2024-05-28_13-13-20.246979,"71.18,76.21"
2024-05-28_13-13-20.279778,"82.21,94.06"
2024-05-28_13-13-20.312440,"75.66,83.47"
2024-05-28_13-13-20.341197,"77.33,96.50"
2024-05-28_13-13-20.374114,"91.52,62.37"
2024-05-28_13-13-20.406719,"74.77,55.85"
2024-05-28_13-13-20.439959,"110.09,58.24"
2024-05-28_13-13-20.472302,"76.97,55.76"
2024-05-28_13-13-20.505055,"78.34,55.89"
2024-05-28_13-13-20.537709,"75.06,58.30"
2024-05-28_13-13-20.566468,"78.53,80.03"
2024-05-28_13-13-20.599239,"68.05,90.51"
2024-05-28_13-13-20.632031,"85.12,67.65"
2024-05-28_13-13-20.664794,"76.33,97.89"
2024-05-28_13-13-20.697583,"85.00,80.04"
2024-05-28_13-13-20.730281,"85.78,56.36"
2024-05-28_13-13-20.762933,"87.94,61.72"
2024-05-28_13-13-20.791616,"87.05,52.72"
2024-05-28_13-13-20.824581,"93.14,54.44"
2024-05-28_13-13-20.857224,"92.62,61.31"
2024-05-28_13-13-20.890000,"72.56,57.95"
2024-05-28_13-13-20.922780,"71.61,74.43"
2024-05-28_13-13-20.955549,"74.36,78.44"
2024-05-28_13-13-20.988444,"75.73,98.81"
2024-05-28_13-13-21.016960,"95.17,89.08"
2024-05-28_13-13-21.049706,"77.02,60.56"
2024-05-28_13-13-21.082529,"91.45,57.16"
2024-05-28_13-13-21.115267,"94.56,58.73"
2024-05-28_13-13-21.148007,"89.44,50.19"
2024-05-28_13-13-21.180793,"98.94,59.85"
2024-05-28_13-13-21.213440,"63.86,56.97"
2024-05-28_13-13-21.242215,"67.56,64.89"
2024-05-28_13-13-21.274930,"78.62,93.39"
2024-05-28_13-13-21.307757,"69.95,90.93"
2024-05-28_13-13-21.340498,"84.94,95.55"
2024-05-28_13-13-21.373246,"96.09,71.99"
2024-05-28_13-13-21.406165,"95.17,51.35"
2024-05-28_13-13-21.438785,"96.64,61.92"
2024-05-28_13-13-21.471387,"78.77,55.02"
2024-05-28_13-13-21.500192,"86.22,56.43"
2024-05-28_13-13-21.533026,"80.65,54.18"
2024-05-28_13-13-21.565816,"68.16,87.41"
2024-05-28_13-13-21.598494,"79.11,89.02"
2024-05-28_13-13-21.631280,"93.15,81.67"
2024-05-28_13-13-21.663957,"74.50,93.99"
2024-05-28_13-13-21.696671,"78.59,78.72"
2024-05-28_13-13-21.725465,"94.37,65.44"
2024-05-28_13-13-21.758176,"106.06,59.48"
2024-05-28_13-13-21.791056,"87.15,55.10"
2024-05-28_13-13-21.823833,"90.12,55.16"
2024-05-28_13-13-21.856543,"90.30,61.34"
2024-05-28_13-13-21.889196,"72.00,49.25"
2024-05-28_13-13-21.921938,"71.85,96.80"
2024-05-28_13-13-21.951077,"75.37,72.93"
2024-05-28_13-13-21.983555,"89.23,91.46"
2024-05-28_13-13-22.016419,"89.33,83.73"
2024-05-28_13-13-22.048998,"87.18,72.55"
2024-05-28_13-13-22.081745,"90.24,58.32"
2024-05-28_13-13-22.114450,"96.44,51.66"
2024-05-28_13-13-22.147135,"86.71,54.77"
2024-05-28_13-13-22.175982,"103.84,59.85"
2024-05-28_13-13-22.208726,"72.99,56.15"
2024-05-28_13-13-22.241489,"74.84,55.38"
2024-05-28_13-13-22.274243,"74.30,71.14"
2024-05-28_13-13-22.306992,"82.34,96.38"
2024-05-28_13-13-22.339723,"91.40,86.54"
2024-05-28_13-13-22.372416,"83.50,62.42"
2024-05-28_13-13-22.401367,"96.90,53.83"
2024-05-28_13-13-22.433966,"77.37,60.21"
2024-05-28_13-13-22.466774,"67.97,51.20"
2024-05-28_13-13-22.499494,"95.78,61.61"
2024-05-28_13-13-22.532157,"65.83,58.00"
2024-05-28_13-13-22.564952,"69.36,57.91"
2024-05-28_13-13-22.597646,"82.16,78.79"
2024-05-28_13-13-22.626432,"83.05,84.98"
2024-05-28_13-13-22.659195,"81.91,95.96"
2024-05-28_13-13-22.691923,"88.23,79.20"
2024-05-28_13-13-22.724713,"84.80,82.85"
2024-05-28_13-13-22.757447,"101.92,56.30"
2024-05-28_13-13-22.790212,"94.94,54.44"
2024-05-28_13-13-22.822902,"105.40,53.68"
2024-05-28_13-13-22.852060,"90.00,53.19"
2024-05-28_13-13-22.884469,"70.83,82.59"
2024-05-28_13-13-22.917211,"72.45,80.14"
2024-05-28_13-13-22.949883,"78.20,84.23"
2024-05-28_13-13-22.982795,"94.64,86.68"
2024-05-28_13-13-23.015451,"84.58,80.03"
2024-05-28_13-13-23.048280,"95.61,82.01"
2024-05-28_13-13-23.076966,"101.98,57.93"
2024-05-28_13-13-23.109860,"78.20,58.56"
2024-05-28_13-13-23.142460,"91.05,54.61"
2024-05-28_13-13-23.175276,"88.38,58.41"
2024-05-28_13-13-23.208005,"82.36,52.11"
2024-05-28_13-13-23.240699,"75.95,60.66"
2024-05-28_13-13-23.273398,"77.57,68.00"
2024-05-28_13-13-23.302183,"77.23,85.17"
2024-05-28_13-13-23.334962,"72.55,92.31"
2024-05-28_13-13-23.367689,"95.71,87.85"
2024-05-28_13-13-23.400482,"99.48,71.07"
2024-05-28_13-13-23.433470,"86.87,54.77"
2024-05-28_13-13-23.465989,"85.28,56.38"
2024-05-28_13-13-23.498735,"94.35,59.69"
2024-05-28_13-13-23.527438,"89.96,56.25"
2024-05-28_13-13-23.560199,"79.34,56.34"
2024-05-28_13-13-23.592966,"76.75,64.78"
2024-05-28_13-13-23.625865,"75.41,90.56"
2024-05-28_13-13-23.658523,"71.73,101.36"
2024-05-28_13-13-23.691274,"74.97,80.07"
2024-05-28_13-13-23.723987,"88.28,91.40"
2024-05-28_13-13-23.752716,"85.77,60.43"
2024-05-28_13-13-23.785451,"84.43,53.01"
2024-05-28_13-13-23.818277,"101.76,58.57"
2024-05-28_13-13-23.850979,"84.00,55.50"
2024-05-28_13-13-23.883740,"94.89,55.79"
2024-05-28_13-13-23.916432,"69.62,61.16"
2024-05-28_13-13-23.949251,"74.83,75.85"
2024-05-28_13-13-23.977945,"70.86,97.64"
2024-05-28_13-13-24.010727,"75.69,84.86"
2024-05-28_13-13-24.043464,"75.17,97.06"
2024-05-28_13-13-24.076206,"96.78,76.21"
2024-05-28_13-13-24.108937,"91.95,71.57"
2024-05-28_13-13-24.141768,"104.39,54.16"
2024-05-28_13-13-24.174391,"65.36,52.50"
2024-05-28_13-13-24.207100,"101.21,56.36"
2024-05-28_13-13-24.235943,"84.56,61.09"
2024-05-28_13-13-24.268621,"63.40,58.26"
2024-05-28_13-13-24.301444,"72.13,87.81"
2024-05-28_13-13-24.334178,"77.14,91.91"
2024-05-28_13-13-24.366926,"93.26,93.47"
2024-05-28_13-13-24.399692,"95.80,85.85"
2024-05-28_13-13-24.428393,"81.09,72.67"
2024-05-28_13-13-24.461122,"101.88,51.65"
2024-05-28_13-13-24.493873,"96.64,56.86"
2024-05-28_13-13-24.526648,"97.97,47.27"
2024-05-28_13-13-24.559425,"108.69,58.81"
2024-05-28_13-13-24.592172,"66.74,57.65"
2024-05-28_13-13-24.624881,"72.43,56.26"
2024-05-28_13-13-24.657578,"82.35,72.49"
2024-05-28_13-13-24.686376,"84.30,84.21"
2024-05-28_13-13-24.719140,"93.53,88.46"
2024-05-28_13-13-24.751939,"86.73,77.91"
2024-05-28_13-13-24.784685,"92.93,69.87"
2024-05-28_13-13-24.817423,"104.06,56.49"
2024-05-28_13-13-24.850193,"94.94,54.89"
2024-05-28_13-13-24.882825,"80.46,55.42"
2024-05-28_13-13-24.911631,"92.60,53.69"
2024-05-28_13-13-24.944374,"70.52,57.96"
2024-05-28_13-13-24.977251,"76.44,71.06"
2024-05-28_13-13-25.009903,"76.20,72.47"
2024-05-28_13-13-25.042675,"82.09,91.49"
2024-05-28_13-13-25.075840,"81.08,73.08"
2024-05-28_13-13-25.108114,"95.16,81.29"
2024-05-28_13-13-25.136881,"108.10,73.09"
2024-05-28_13-13-25.169685,"87.02,54.10"
2024-05-28_13-13-25.202450,"106.59,53.62"
2024-05-28_13-13-25.238520,"99.72,58.10"
2024-05-28_13-13-25.268190,"78.02,51.51"
2024-05-28_13-13-25.301126,"77.79,85.12"
2024-05-28_13-13-25.333905,"76.58,72.36"
2024-05-28_13-13-25.362723,"73.01,72.84"
2024-05-28_13-13-25.395561,"83.35,80.89"
2024-05-28_13-13-25.428061,"90.13,82.33"
2024-05-28_13-13-25.460508,"91.45,60.12"
2024-05-28_13-13-25.493210,"93.70,51.24"
2024-05-28_13-13-25.525910,"99.52,53.28"
2024-05-28_13-13-25.558629,"103.61,59.36"
2024-05-28_13-13-25.587407,"88.59,55.84"
2024-05-28_13-13-25.620154,"73.40,57.44"
2024-05-28_13-13-25.652928,"77.54,75.49"
2024-05-28_13-13-25.685677,"76.66,83.21"
2024-05-28_13-13-25.718465,"78.28,99.18"
2024-05-28_13-13-25.751193,"78.78,80.09"
2024-05-28_13-13-25.783875,"100.47,84.81"
2024-05-28_13-13-25.812657,"92.16,72.13"
2024-05-28_13-13-25.845548,"98.69,46.78"
2024-05-28_13-13-25.878243,"111.20,58.00"
2024-05-28_13-13-25.911248,"83.55,55.59"
2024-05-28_13-13-25.943726,"88.34,56.75"
2024-05-28_13-13-25.976455,"64.52,61.98"
2024-05-28_13-13-26.009132,"73.19,75.36"
2024-05-28_13-13-26.037865,"75.03,95.47"
2024-05-28_13-13-26.070611,"81.94,84.92"
2024-05-28_13-13-26.103379,"90.22,83.96"
2024-05-28_13-13-26.136129,"98.43,74.37"
2024-05-28_13-13-26.168962,"91.28,54.66"
2024-05-28_13-13-26.201676,"105.79,53.59"
2024-05-28_13-13-26.234396,"96.56,51.68"
2024-05-28_13-13-26.263112,"103.07,54.26"
2024-05-28_13-13-26.295938,"89.20,60.11"
2024-05-28_13-13-26.328645,"64.95,57.68"
2024-05-28_13-13-26.361414,"70.18,88.09"
2024-05-28_13-13-26.394163,"78.56,79.51"
2024-05-28_13-13-26.426980,"83.18,95.66"
2024-05-28_13-13-26.459605,"92.49,86.67"
2024-05-28_13-13-26.488375,"80.57,73.23"
2024-05-28_13-13-26.521152,"101.11,51.66"
2024-05-28_13-13-26.553960,"93.59,56.87"
2024-05-28_13-13-26.586659,"97.46,47.96"
2024-05-28_13-13-26.619442,"103.11,58.80"
2024-05-28_13-13-26.652191,"62.05,57.74"
2024-05-28_13-13-26.684918,"68.73,63.36"
2024-05-28_13-13-26.713616,"79.97,80.64"
2024-05-28_13-13-26.746370,"85.56,90.03"
2024-05-28_13-13-26.779102,"88.19,91.66"
2024-05-28_13-13-26.811917,"90.15,75.00"
2024-05-28_13-13-26.844634,"90.16,53.67"
2024-05-28_13-13-26.877435,"100.59,57.35"
2024-05-28_13-13-26.910143,"92.33,54.58"
2024-05-28_13-13-26.943019,"102.84,53.81"
2024-05-28_13-13-26.971639,"99.99,54.39"
2024-05-28_13-13-27.004392,"67.14,82.15"
2024-05-28_13-13-27.037205,"78.72,84.37"
2024-05-28_13-13-27.069914,"88.76,79.71"
2024-05-28_13-13-27.102692,"83.00,92.84"
2024-05-28_13-13-27.135388,"76.07,77.41"
2024-05-28_13-13-27.168116,"96.34,82.95"
2024-05-28_13-13-27.196873,"99.77,75.52"
2024-05-28_13-13-27.229662,"93.56,67.38"
2024-05-28_13-13-27.262416,"102.19,91.62"
2024-05-28_13-13-27.295144,"91.49,82.39"
2024-05-28_13-13-27.327907,"75.34,83.12"
2024-05-28_13-13-27.360664,"90.71,88.45"
2024-05-28_13-13-27.393326,"86.84,88.70"
2024-05-28_13-13-27.422151,"71.04,95.61"
2024-05-28_13-13-27.455010,"83.39,81.74"
2024-05-28_13-13-27.487661,"67.33,91.14"
2024-05-28_13-13-27.520409,"78.10,73.23"
2024-05-28_13-13-27.553148,"100.11,95.69"
2024-05-28_13-13-27.585937,"76.36,95.88"
2024-05-28_13-13-27.618578,"92.65,102.03"
2024-05-28_13-13-27.647402,"80.08,95.05"
2024-05-28_13-13-27.680129,"71.71,68.28"
2024-05-28_13-13-27.712895,"94.05,80.67"
2024-05-28_13-13-27.745652,"80.23,80.03"
2024-05-28_13-13-27.778410,"80.29,88.24"
2024-05-28_13-13-27.811168,"49.61,95.51"
2024-05-28_13-13-27.843840,"64.18,76.55"
2024-05-28_13-13-27.872607,"88.84,92.10"
2024-05-28_13-13-27.905421,"86.92,91.53"
2024-05-28_13-13-27.938155,"62.44,76.61"
2024-05-28_13-13-27.970912,"60.66,79.17"
2024-05-28_13-13-28.003649,"70.04,82.76"
2024-05-28_13-13-28.036426,"93.34,90.26"
2024-05-28_13-13-28.069091,"84.23,66.93"
2024-05-28_13-13-28.097865,"84.39,48.54"
2024-05-28_13-13-28.130662,"80.04,88.80"
2024-05-28_13-13-28.163417,"79.70,93.26"
2024-05-28_13-13-28.196189,"74.65,100.84"
2024-05-28_13-13-28.228922,"81.35,84.89"
2024-05-28_13-13-28.261657,"70.52,86.13"
2024-05-28_13-13-28.294361,"81.64,88.82"
2024-05-28_13-13-28.323104,"73.95,70.09"
2024-05-28_13-13-28.355887,"90.28,76.88"
2024-05-28_13-13-28.388727,"94.13,88.08"
2024-05-28_13-13-28.421445,"86.40,54.94"
2024-05-28_13-13-28.454192,"99.59,80.74"
2024-05-28_13-13-28.486929,"73.26,94.48"
2024-05-28_13-13-28.519635,"68.04,99.92"
2024-05-28_13-13-28.548368,"74.29,99.38"
2024-05-28_13-13-28.581116,"72.75,79.25"
2024-05-28_13-13-28.613885,"63.49,85.34"
2024-05-28_13-13-28.646652,"62.76,79.50"
2024-05-28_13-13-28.679414,"68.55,67.15"
2024-05-28_13-13-28.712185,"82.83,83.73"
2024-05-28_13-13-28.744870,"92.61,73.99"
2024-05-28_13-13-28.773616,"91.92,64.11"
2024-05-28_13-13-28.806362,"85.46,91.91"
2024-05-28_13-13-28.839129,"77.57,91.62"
2024-05-28_13-13-28.871895,"67.94,98.17"
2024-05-28_13-13-28.904741,"84.53,85.26"
2024-05-28_13-13-28.937434,"72.18,102.77"
2024-05-28_13-13-28.970135,"67.57,90.54"
2024-05-28_13-13-28.998864,"57.84,65.77"
2024-05-28_13-13-29.031601,"56.97,75.12"
2024-05-28_13-13-29.064448,"89.20,73.12"
2024-05-28_13-13-29.097175,"104.71,81.46"
2024-05-28_13-13-29.129926,"80.48,68.63"
2024-05-28_13-13-29.162708,"96.32,76.90"
2024-05-28_13-13-29.195390,"67.77,100.06"
2024-05-28_13-13-29.224085,"62.20,85.06"
2024-05-28_13-13-29.256861,"75.45,89.94"
2024-05-28_13-13-29.289699,"70.01,95.46"
2024-05-28_13-13-29.322386,"65.79,88.38"
2024-05-28_13-13-29.355157,"57.93,75.94"
2024-05-28_13-13-29.387959,"73.69,79.82"
2024-05-28_13-13-29.420687,"98.29,69.84"
2024-05-28_13-13-29.449462,"93.23,79.87"
2024-05-28_13-13-29.482130,"97.59,63.42"
2024-05-28_13-13-29.514881,"100.41,96.64"
2024-05-28_13-13-29.547669,"66.84,101.19"
2024-05-28_13-13-29.580411,"71.02,94.59"
2024-05-28_13-13-29.613210,"81.72,90.65"
2024-05-28_13-13-29.645892,"67.60,78.57"
2024-05-28_13-13-29.674666,"78.39,96.42"
2024-05-28_13-13-29.707366,"55.12,80.69"
2024-05-28_13-13-29.740138,"75.13,68.11"
2024-05-28_13-13-29.772927,"77.04,80.22"
2024-05-28_13-13-29.805657,"94.57,73.51"
2024-05-28_13-13-29.838400,"92.28,72.39"
2024-05-28_13-13-29.871159,"85.80,92.43"
2024-05-28_13-13-29.899862,"77.13,92.85"
2024-05-28_13-13-29.932679,"71.89,106.58"
2024-05-28_13-13-29.965412,"73.01,84.45"
2024-05-28_13-13-29.998167,"67.26,87.49"
2024-05-28_13-13-30.030891,"55.95,79.58"
2024-05-28_13-13-30.063695,"70.87,69.53"
2024-05-28_13-13-30.096394,"71.23,75.32"
2024-05-28_13-13-30.129145,"94.69,82.97"
2024-05-28_13-13-30.157944,"92.91,73.15"
2024-05-28_13-13-30.190635,"81.10,65.82"
2024-05-28_13-13-30.223400,"102.90,76.82"
2024-05-28_13-13-30.256188,"66.59,108.66"
2024-05-28_13-13-30.288939,"68.37,99.11"
2024-05-28_13-13-30.321652,"63.13,69.01"
2024-05-28_13-13-30.350368,"57.39,77.13"
2024-05-28_13-13-30.383102,"73.81,72.35"
2024-05-28_13-13-30.415919,"78.56,74.65"
2024-05-28_13-13-30.448666,"84.50,84.37"
2024-05-28_13-13-30.481461,"102.43,71.87"
2024-05-28_13-13-30.514192,"81.87,64.72"
2024-05-28_13-13-30.546920,"86.04,81.48"
2024-05-28_13-13-30.579608,"87.54,98.33"
2024-05-28_13-13-30.608346,"60.98,99.31"
2024-05-28_13-13-30.641126,"79.73,77.54"
2024-05-28_13-13-30.673912,"52.38,78.47"
2024-05-28_13-13-30.706646,"68.07,80.38"
2024-05-28_13-13-30.739428,"75.91,68.46"
2024-05-28_13-13-30.772180,"76.80,81.35"
2024-05-28_13-13-30.804851,"96.58,71.39"
2024-05-28_13-13-30.833626,"94.11,66.46"
2024-05-28_13-13-30.866376,"93.74,80.01"
2024-05-28_13-13-30.899144,"84.79,88.27"
2024-05-28_13-13-30.931934,"62.28,99.48"
2024-05-28_13-13-30.964676,"73.60,80.13"
2024-05-28_13-13-30.997420,"57.12,81.27"
2024-05-28_13-13-31.030126,"60.43,83.67"
2024-05-28_13-13-31.058870,"74.81,70.27"
2024-05-28_13-13-31.091717,"65.62,75.74"
2024-05-28_13-13-31.124473,"93.23,72.61"
2024-05-28_13-13-31.157155,"91.58,76.66"
2024-05-28_13-13-31.189949,"84.63,76.58"
2024-05-28_13-13-31.222691,"89.32,70.75"
2024-05-28_13-13-31.255381,"83.49,93.56"
2024-05-28_13-13-31.284137,"63.93,97.13"
2024-05-28_13-13-31.316883,"69.69,96.38"
2024-05-28_13-13-31.349645,"65.45,83.95"
2024-05-28_13-13-31.382390,"69.40,71.30"
2024-05-28_13-13-31.415205,"66.43,76.37"
2024-05-28_13-13-31.447949,"75.36,80.23"
2024-05-28_13-13-31.480645,"83.12,66.91"
2024-05-28_13-13-31.509393,"95.13,85.81"
2024-05-28_13-13-31.542134,"87.81,53.73"
2024-05-28_13-13-31.574892,"90.36,82.25"
2024-05-28_13-13-31.607659,"82.13,102.68"
2024-05-28_13-13-31.640398,"74.87,82.23"
2024-05-28_13-13-31.673188,"78.19,90.64"
2024-05-28_13-13-31.705905,"53.23,72.02"
2024-05-28_13-13-31.734620,"62.65,77.71"
2024-05-28_13-13-31.767364,"66.15,82.82"
2024-05-28_13-13-31.800159,"85.51,69.99"
2024-05-28_13-13-31.832931,"71.76,77.51"
2024-05-28_13-13-31.865706,"95.63,73.85"
2024-05-28_13-13-31.898489,"92.51,72.77"
2024-05-28_13-13-31.931183,"93.89,80.28"
2024-05-28_13-13-31.959919,"84.47,90.43"
2024-05-28_13-13-31.992649,"67.72,98.41"
2024-05-28_13-13-32.025406,"67.73,88.39"
2024-05-28_13-13-32.058157,"57.37,74.14"
2024-05-28_13-13-32.090904,"64.84,81.94"
2024-05-28_13-13-32.123698,"76.55,72.90"
2024-05-28_13-13-32.156453,"72.26,75.37"
2024-05-28_13-13-32.185111,"77.31,80.27"
2024-05-28_13-13-32.217873,"90.29,70.03"
2024-05-28_13-13-32.250642,"91.62,77.96"
2024-05-28_13-13-32.283487,"91.03,71.56"
2024-05-28_13-13-32.316201,"77.66,96.04"
2024-05-28_13-13-32.348930,"64.79,99.87"
2024-05-28_13-13-32.381664,"66.88,79.16"
2024-05-28_13-13-32.410393,"60.25,82.48"
2024-05-28_13-13-32.443155,"66.89,73.00"
2024-05-28_13-13-32.475926,"72.71,75.15"
2024-05-28_13-13-32.508788,"71.78,82.97"
2024-05-28_13-13-32.541457,"89.43,68.92"
2024-05-28_13-13-32.574223,"80.98,78.10"
2024-05-28_13-13-32.606913,"93.82,67.17"
2024-05-28_13-13-32.639608,"80.10,63.69"
2024-05-28_13-13-32.668427,"90.83,91.60"
2024-05-28_13-13-32.701141,"74.88,95.03"
2024-05-28_13-13-32.733919,"63.95,99.85"
2024-05-28_13-13-32.766677,"63.34,80.10"
2024-05-28_13-13-32.799466,"59.14,70.13"
2024-05-28_13-13-32.832173,"68.69,81.67"
2024-05-28_13-13-32.864884,"77.51,71.22"
2024-05-28_13-13-32.893680,"75.23,75.80"
2024-05-28_13-13-32.926436,"90.14,82.41"
2024-05-28_13-13-32.959190,"91.04,53.08"
2024-05-28_13-13-32.991961,"92.22,78.69"
2024-05-28_13-13-33.024666,"95.60,89.49"
2024-05-28_13-13-33.057429,"71.49,97.56"
2024-05-28_13-13-33.090140,"67.44,93.27"
2024-05-28_13-13-33.118867,"59.96,73.64"
2024-05-28_13-13-33.151715,"56.46,76.79"
2024-05-28_13-13-33.184415,"76.74,73.86"
2024-05-28_13-13-33.217192,"79.04,74.76"
2024-05-28_13-13-33.249942,"72.05,82.52"
2024-05-28_13-13-33.282702,"86.97,71.82"
2024-05-28_13-13-33.315391,"93.11,65.58"
2024-05-28_13-13-33.344138,"93.81,80.61"
2024-05-28_13-13-33.376887,"78.57,85.45"
2024-05-28_13-13-33.409786,"66.68,99.82"
2024-05-28_13-13-33.442453,"74.73,78.80"
2024-05-28_13-13-33.475193,"57.91,82.02"
2024-05-28_13-13-33.507940,"61.96,80.28"
2024-05-28_13-13-33.540633,"67.33,68.38"
2024-05-28_13-13-33.569395,"71.62,82.70"
2024-05-28_13-13-33.602132,"83.88,70.78"
2024-05-28_13-13-33.634940,"89.44,76.35"
2024-05-28_13-13-33.667686,"100.97,81.28"
2024-05-28_13-13-33.700433,"79.23,65.70"
2024-05-28_13-13-33.733204,"88.69,94.30"
2024-05-28_13-13-33.765879,"75.49,73.88"
2024-05-28_13-13-33.794654,"64.14,97.55"
2024-05-28_13-13-33.827383,"82.50,83.47"
2024-05-28_13-13-33.860281,"66.41,71.55"
2024-05-28_13-13-33.892960,"62.44,77.17"
2024-05-28_13-13-33.925708,"80.75,72.41"
2024-05-28_13-13-33.958433,"82.88,74.44"
2024-05-28_13-13-33.991174,"85.27,85.20"
2024-05-28_13-13-34.019884,"90.56,54.22"
2024-05-28_13-13-34.052658,"91.61,79.82"
2024-05-28_13-13-34.085459,"86.38,82.75"
2024-05-28_13-13-34.118192,"80.09,95.83"
2024-05-28_13-13-34.150914,"64.01,89.17"
2024-05-28_13-13-34.183691,"90.86,98.60"
2024-05-28_13-13-34.216408,"81.44,74.31"
2024-05-28_13-13-34.245168,"69.27,56.93"
2024-05-28_13-13-34.277929,"84.96,67.06"
2024-05-28_13-13-34.310686,"71.48,80.80"
2024-05-28_13-13-34.343437,"97.64,70.52"
2024-05-28_13-13-34.376212,"86.03,84.51"
2024-05-28_13-13-34.408984,"91.61,78.18"
2024-05-28_13-13-34.441716,"81.90,89.57"
2024-05-28_13-13-34.470389,"70.38,98.62"
2024-05-28_13-13-34.503166,"66.15,82.74"
2024-05-28_13-13-34.535938,"79.29,80.89"
2024-05-28_13-13-34.568692,"59.40,85.07"
2024-05-28_13-13-34.601509,"72.30,70.78"
2024-05-28_13-13-34.634274,"65.69,75.75"
2024-05-28_13-13-34.666955,"87.76,72.13"
2024-05-28_13-13-34.695638,"89.43,75.69"
2024-05-28_13-13-34.728417,"86.06,73.05"
2024-05-28_13-13-34.761173,"84.09,71.16"
2024-05-28_13-13-34.793956,"95.38,87.64"
2024-05-28_13-13-34.826698,"56.69,86.70"
2024-05-28_13-13-34.859501,"69.59,79.64"
2024-05-28_13-13-34.892254,"85.57,83.61"
2024-05-28_13-13-34.924904,"68.34,72.56"
2024-05-28_13-13-34.953677,"65.56,75.83"
2024-05-28_13-13-34.986421,"76.67,79.92"
2024-05-28_13-13-35.019229,"80.49,67.25"
2024-05-28_13-13-35.052008,"86.98,83.17"
2024-05-28_13-13-35.084739,"91.63,59.91"
2024-05-28_13-13-35.117442,"88.41,77.18"
2024-05-28_13-13-35.150219,"83.74,93.42"
2024-05-28_13-13-35.179087,"81.22,85.66"
2024-05-28_13-13-35.211658,"63.39,88.45"
2024-05-28_13-13-35.244454,"70.11,78.91"
2024-05-28_13-13-35.277192,"92.51,78.93"
2024-05-28_13-13-35.309991,"61.34,83.06"
2024-05-28_13-13-35.342703,"76.64,71.38"
2024-05-28_13-13-35.375406,"64.17,76.13"
2024-05-28_13-13-35.404221,"83.88,72.07"
2024-05-28_13-13-35.436963,"82.43,76.27"
2024-05-28_13-13-35.469706,"88.76,76.79"
2024-05-28_13-13-35.502482,"83.87,70.52"
2024-05-28_13-13-35.535254,"94.58,98.21"
2024-05-28_13-13-35.567960,"58.92,93.38"
2024-05-28_13-13-35.600634,"64.51,81.20"
