timestamp,EMG
2024-05-28_16-39-09.030220,"94.53,80.90"
2024-05-28_16-39-09.063071,"89.59,34.32"
2024-05-28_16-39-09.095637,"86.90,34.52"
2024-05-28_16-39-09.124425,"83.18,52.47"
2024-05-28_16-39-09.157172,"77.50,64.90"
2024-05-28_16-39-09.190295,"72.93,46.76"
2024-05-28_16-39-09.222704,"65.56,64.28"
2024-05-28_16-39-09.255560,"71.66,54.42"
2024-05-28_16-39-09.288186,"80.75,79.61"
2024-05-28_16-39-09.324260,"91.77,83.87"
2024-05-28_16-39-09.349593,"88.23,35.52"
2024-05-28_16-39-09.382383,"83.25,33.94"
2024-05-28_16-39-09.415141,"84.37,51.58"
2024-05-28_16-39-09.447848,"78.58,49.65"
2024-05-28_16-39-09.480719,"77.40,63.31"
2024-05-28_16-39-09.513450,"65.87,47.48"
2024-05-28_16-39-09.546081,"69.87,75.89"
2024-05-28_16-39-09.574839,"74.00,64.54"
2024-05-28_16-39-09.607612,"87.31,92.10"
2024-05-28_16-39-09.640265,"91.05,66.33"
2024-05-28_16-39-09.673136,"89.17,35.56"
2024-05-28_16-39-09.705855,"87.13,30.69"
2024-05-28_16-39-09.738897,"79.85,66.43"
2024-05-28_16-39-09.771269,"76.59,47.21"
2024-05-28_16-39-09.800030,"68.72,63.35"
2024-05-28_16-39-09.832725,"71.11,60.56"
2024-05-28_16-39-09.865614,"68.61,37.50"
2024-05-28_16-39-09.898289,"88.10,88.08"
2024-05-28_16-39-09.931305,"87.39,73.53"
2024-05-28_16-39-09.963851,"87.64,36.37"
2024-05-28_16-39-09.996591,"87.50,53.26"
2024-05-28_16-39-10.025232,"80.81,50.89"
2024-05-28_16-39-10.058019,"79.21,64.16"
2024-05-28_16-39-10.091212,"67.98,47.36"
2024-05-28_16-39-10.123500,"69.96,61.98"
2024-05-28_16-39-10.156289,"69.95,53.50"
2024-05-28_16-39-10.189055,"81.81,74.45"
2024-05-28_16-39-10.221713,"90.52,86.48"
2024-05-28_16-39-10.254418,"88.68,36.60"
2024-05-28_16-39-10.283150,"88.45,31.39"
2024-05-28_16-39-10.315991,"83.27,51.85"
2024-05-28_16-39-10.348686,"81.63,49.05"
2024-05-28_16-39-10.381484,"72.40,64.76"
2024-05-28_16-39-10.414244,"71.56,46.38"
2024-05-28_16-39-10.446996,"64.56,74.73"
2024-05-28_16-39-10.479569,"75.76,58.36"
2024-05-28_16-39-10.508405,"80.60,92.40"
2024-05-28_16-39-10.541118,"89.92,67.78"
2024-05-28_16-39-10.573997,"89.24,30.00"
2024-05-28_16-39-10.606700,"82.73,52.84"
2024-05-28_16-39-10.639446,"83.00,64.62"
2024-05-28_16-39-10.672086,"75.11,47.72"
2024-05-28_16-39-10.705538,"76.52,62.68"
2024-05-28_16-39-10.733722,"68.46,87.73"
2024-05-28_16-39-10.766372,"65.80,47.49"
2024-05-28_16-39-10.799142,"81.41,75.66"
2024-05-28_16-39-10.831826,"82.96,79.86"
2024-05-28_16-39-10.864675,"90.29,32.28"
2024-05-28_16-39-10.897317,"82.54,69.22"
2024-05-28_16-39-10.930001,"83.98,50.03"
2024-05-28_16-39-10.958841,"76.65,65.30"
2024-05-28_16-39-10.991554,"75.67,46.94"
2024-05-28_16-39-11.024373,"67.63,64.08"
2024-05-28_16-39-11.057120,"67.54,64.69"
2024-05-28_16-39-11.089961,"79.66,26.61"
2024-05-28_16-39-11.122558,"71.86,59.52"
2024-05-28_16-39-11.155257,"73.59,76.56"
2024-05-28_16-39-11.184082,"69.13,65.50"
2024-05-28_16-39-11.216828,"36.13,77.14"
2024-05-28_16-39-11.249760,"68.32,40.57"
2024-05-28_16-39-11.282330,"66.96,39.27"
2024-05-28_16-39-11.324725,"67.18,41.43"
2024-05-28_16-39-11.348938,"66.58,38.64"
2024-05-28_16-39-11.380543,"87.04,31.33"
2024-05-28_16-39-11.409258,"68.64,75.74"
2024-05-28_16-39-11.441988,"48.72,68.10"
2024-05-28_16-39-11.474750,"43.10,65.96"
2024-05-28_16-39-11.507544,"39.07,74.53"
2024-05-28_16-39-11.540294,"71.14,51.57"
2024-05-28_16-39-11.573011,"66.80,39.45"
2024-05-28_16-39-11.605678,"67.33,41.87"
2024-05-28_16-39-11.634451,"66.35,38.34"
2024-05-28_16-39-11.667203,"81.00,34.30"
2024-05-28_16-39-11.700169,"76.14,65.18"
2024-05-28_16-39-11.732737,"53.39,69.14"
2024-05-28_16-39-11.765528,"42.02,66.24"
2024-05-28_16-39-11.798201,"39.35,74.25"
2024-05-28_16-39-11.830883,"54.05,73.95"
2024-05-28_16-39-11.859729,"66.30,39.83"
2024-05-28_16-39-11.892446,"67.24,42.17"
2024-05-28_16-39-11.925158,"66.44,38.58"
2024-05-28_16-39-11.959040,"74.87,39.47"
2024-05-28_16-39-11.990656,"83.74,51.29"
2024-05-28_16-39-12.023412,"52.58,76.14"
2024-05-28_16-39-12.056080,"40.38,66.19"
2024-05-28_16-39-12.084878,"39.39,74.38"
2024-05-28_16-39-12.117686,"39.48,67.15"
2024-05-28_16-39-12.150378,"61.87,64.36"
2024-05-28_16-39-12.183134,"67.18,40.98"
2024-05-28_16-39-12.216101,"66.48,38.65"
2024-05-28_16-39-12.248664,"74.91,39.57"
2024-05-28_16-39-12.281289,"66.49,38.62"
2024-05-28_16-39-12.310170,"79.12,48.73"
2024-05-28_16-39-12.343024,"58.09,59.38"
2024-05-28_16-39-12.375605,"40.27,74.21"
2024-05-28_16-39-12.408447,"39.67,67.07"
2024-05-28_16-39-12.441282,"38.33,77.27"
2024-05-28_16-39-12.473897,"57.81,58.88"
2024-05-28_16-39-12.506521,"66.49,38.64"
2024-05-28_16-39-12.535280,"74.86,39.41"
2024-05-28_16-39-12.568083,"67.61,39.51"
2024-05-28_16-39-12.600901,"88.10,34.80"
2024-05-28_16-39-12.633535,"63.06,63.95"
2024-05-28_16-39-12.666342,"37.79,77.04"
2024-05-28_16-39-12.699113,"40.64,67.57"
2024-05-28_16-39-12.731765,"40.45,66.47"
2024-05-28_16-39-12.760839,"55.40,79.57"
2024-05-28_16-39-12.793233,"66.81,53.19"
2024-05-28_16-39-12.826033,"74.98,39.52"
2024-05-28_16-39-12.858876,"67.57,39.69"
2024-05-28_16-39-12.891608,"65.84,38.57"
2024-05-28_16-39-12.924310,"92.94,24.12"
2024-05-28_16-39-12.957014,"78.33,81.48"
2024-05-28_16-39-12.985784,"39.41,66.43"
2024-05-28_16-39-13.018516,"39.94,66.50"
2024-05-28_16-39-13.051217,"40.22,75.19"
2024-05-28_16-39-13.084019,"71.65,45.00"
2024-05-28_16-39-13.116745,"75.04,38.76"
2024-05-28_16-39-13.149498,"67.51,39.09"
2024-05-28_16-39-13.182157,"66.94,39.80"
2024-05-28_16-39-13.210926,"86.06,29.20"
2024-05-28_16-39-13.243717,"81.37,71.60"
2024-05-28_16-39-13.276512,"51.37,67.89"
2024-05-28_16-39-13.309213,"39.82,66.27"
2024-05-28_16-39-13.341919,"40.16,66.81"
2024-05-28_16-39-13.374738,"53.77,75.37"
2024-05-28_16-39-13.407431,"74.40,39.07"
2024-05-28_16-39-13.436172,"67.42,39.67"
2024-05-28_16-39-13.468890,"66.81,39.32"
2024-05-28_16-39-13.501722,"68.97,37.86"
2024-05-28_16-39-13.534484,"85.41,65.74"
2024-05-28_16-39-13.567183,"52.38,68.29"
2024-05-28_16-39-13.600002,"40.26,66.85"
2024-05-28_16-39-13.639233,"39.68,66.51"
2024-05-28_16-39-13.665340,"36.72,82.83"
2024-05-28_16-39-13.694073,"79.29,52.41"
2024-05-28_16-39-13.726947,"67.43,39.25"
2024-05-28_16-39-13.759727,"66.96,40.17"
2024-05-28_16-39-13.792561,"68.02,40.17"
2024-05-28_16-39-13.825146,"83.25,48.97"
2024-05-28_16-39-13.857849,"63.43,73.35"
2024-05-28_16-39-13.890515,"41.69,66.30"
2024-05-28_16-39-13.919344,"40.69,66.95"
2024-05-28_16-39-13.952119,"42.95,66.17"
2024-05-28_16-39-13.984919,"62.29,88.45"
2024-05-28_16-39-14.017608,"66.83,40.11"
2024-05-28_16-39-14.050388,"66.84,39.38"
2024-05-28_16-39-14.083027,"67.24,41.87"
2024-05-28_16-39-14.115715,"77.46,34.15"
2024-05-28_16-39-14.144760,"67.94,64.27"
2024-05-28_16-39-14.177748,"57.43,69.87"
2024-05-28_16-39-14.212790,"40.18,66.56"
2024-05-28_16-39-14.242865,"42.21,66.23"
2024-05-28_16-39-14.275680,"56.85,76.24"
2024-05-28_16-39-14.308260,"66.95,50.60"
2024-05-28_16-39-14.340979,"66.97,39.86"
2024-05-28_16-39-14.369792,"67.15,42.22"
2024-05-28_16-39-14.402484,"66.58,38.64"
2024-05-28_16-39-14.435804,"82.01,29.17"
2024-05-28_16-39-14.468049,"69.76,74.95"
2024-05-28_16-39-14.500734,"48.20,68.48"
2024-05-28_16-39-14.533462,"42.82,66.03"
2024-05-28_16-39-14.566221,"39.38,74.56"
2024-05-28_16-39-14.595049,"47.86,77.14"
2024-05-28_16-39-14.627782,"66.84,39.40"
2024-05-28_16-39-14.660555,"67.24,41.82"
2024-05-28_16-39-14.693323,"66.36,38.28"
2024-05-28_16-39-14.726196,"85.94,37.63"
2024-05-28_16-39-14.758687,"78.40,68.16"
2024-05-28_16-39-14.791422,"39.56,70.89"
2024-05-28_16-39-14.820215,"38.56,66.56"
2024-05-28_16-39-14.852939,"39.02,74.43"
2024-05-28_16-39-14.885746,"38.09,77.79"
2024-05-28_16-39-14.918525,"70.85,63.85"
2024-05-28_16-39-14.951291,"67.20,41.60"
2024-05-28_16-39-14.983841,"66.49,38.64"
2024-05-28_16-39-15.016758,"74.87,39.05"
2024-05-28_16-39-15.050898,"78.52,30.34"
2024-05-28_16-39-15.078250,"67.05,62.54"
2024-05-28_16-39-15.111058,"67.47,67.25"
2024-05-28_16-39-15.143648,"38.96,74.40"
2024-05-28_16-39-15.176429,"39.47,67.25"
2024-05-28_16-39-15.209267,"53.07,73.55"
2024-05-28_16-39-15.241803,"66.62,42.89"
2024-05-28_16-39-15.270655,"66.38,38.54"
2024-05-28_16-39-15.303395,"74.93,39.40"
2024-05-28_16-39-15.336194,"80.14,37.89"
2024-05-28_16-39-15.368909,"77.07,48.41"
2024-05-28_16-39-15.401798,"70.41,71.84"
2024-05-28_16-39-15.434346,"39.43,74.51"
2024-05-28_16-39-15.467078,"40.08,67.07"
2024-05-28_16-39-15.495795,"37.06,71.80"
2024-05-28_16-39-15.528556,"70.83,55.72"
2024-05-28_16-39-15.561389,"66.13,38.65"
2024-05-28_16-39-15.594145,"74.84,39.51"
2024-05-28_16-39-15.626894,"65.22,57.12"
2024-05-28_16-39-15.659610,"83.58,56.67"
2024-05-28_16-39-15.692268,"76.03,82.04"
2024-05-28_16-39-15.721115,"83.23,61.77"
2024-05-28_16-39-15.753822,"75.37,68.29"
2024-05-28_16-39-15.787051,"77.08,47.73"
2024-05-28_16-39-15.819349,"74.82,76.85"
2024-05-28_16-39-15.852090,"84.43,75.41"
2024-05-28_16-39-15.884874,"84.87,76.15"
2024-05-28_16-39-15.917498,"83.16,73.25"
2024-05-28_16-39-15.946285,"81.13,77.45"
2024-05-28_16-39-15.979017,"71.48,88.77"
2024-05-28_16-39-16.011800,"79.31,82.30"
2024-05-28_16-39-16.044631,"81.38,53.19"
2024-05-28_16-39-16.077398,"78.65,69.42"
2024-05-28_16-39-16.110218,"76.62,64.34"
2024-05-28_16-39-16.142715,"75.79,46.08"
2024-05-28_16-39-16.171502,"80.64,76.76"
2024-05-28_16-39-16.204425,"71.87,78.12"
2024-05-28_16-39-16.236959,"77.18,85.72"
2024-05-28_16-39-16.269786,"68.04,80.45"
2024-05-28_16-39-16.302541,"77.20,73.92"
2024-05-28_16-39-16.335249,"86.94,85.32"
2024-05-28_16-39-16.367941,"85.01,34.83"
2024-05-28_16-39-16.396652,"85.72,30.32"
2024-05-28_16-39-16.429467,"79.12,67.89"
2024-05-28_16-39-16.462251,"79.71,48.27"
2024-05-28_16-39-16.495163,"73.79,63.63"
2024-05-28_16-39-16.527719,"73.69,46.07"
2024-05-28_16-39-16.560638,"65.47,76.01"
2024-05-28_16-39-16.593183,"70.69,51.28"
2024-05-28_16-39-16.625851,"78.78,71.16"
2024-05-28_16-39-16.654683,"89.77,77.77"
2024-05-28_16-39-16.687452,"90.73,31.37"
2024-05-28_16-39-16.720488,"84.42,30.77"
2024-05-28_16-39-16.753026,"82.80,67.70"
2024-05-28_16-39-16.785706,"73.98,49.42"
2024-05-28_16-39-16.818422,"73.68,63.31"
2024-05-28_16-39-16.851049,"67.93,63.32"
2024-05-28_16-39-16.879870,"66.15,54.53"
2024-05-28_16-39-16.912641,"80.63,64.04"
2024-05-28_16-39-16.945699,"79.67,92.41"
2024-05-28_16-39-16.978197,"94.17,65.85"
2024-05-28_16-39-17.010956,"93.05,32.55"
2024-05-28_16-39-17.043656,"92.72,34.31"
2024-05-28_16-39-17.076283,"85.10,34.72"
2024-05-28_16-39-17.105149,"83.54,36.29"
2024-05-28_16-39-17.138504,"74.06,33.62"
2024-05-28_16-39-17.170730,"67.83,37.19"
2024-05-28_16-39-17.203410,"66.17,36.42"
2024-05-28_16-39-17.236149,"82.82,81.20"
2024-05-28_16-39-17.268856,"87.98,95.90"
2024-05-28_16-39-17.301542,"106.52,63.60"
2024-05-28_16-39-17.331649,"111.48,34.55"
2024-05-28_16-39-17.363327,"104.66,35.45"
2024-05-28_16-39-17.395809,"95.07,37.32"
2024-05-28_16-39-17.428633,"98.18,53.65"
2024-05-28_16-39-17.461400,"80.02,55.41"
2024-05-28_16-39-17.494059,"61.58,39.24"
2024-05-28_16-39-17.526765,"66.62,42.32"
2024-05-28_16-39-17.555591,"73.89,56.84"
2024-05-28_16-39-17.588399,"68.58,86.67"
2024-05-28_16-39-17.621100,"86.69,84.93"
2024-05-28_16-39-17.653790,"63.29,87.02"
2024-05-28_16-39-17.686627,"66.54,36.71"
2024-05-28_16-39-17.719280,"67.33,42.35"
2024-05-28_16-39-17.751965,"67.58,37.68"
2024-05-28_16-39-17.780753,"84.02,50.88"
2024-05-28_16-39-17.813533,"60.01,73.58"
2024-05-28_16-39-17.846281,"53.31,67.57"
2024-05-28_16-39-17.879030,"42.99,66.23"
2024-05-28_16-39-17.911755,"39.49,74.48"
2024-05-28_16-39-17.944533,"40.38,67.18"
2024-05-28_16-39-17.977179,"39.26,65.47"
2024-05-28_16-39-18.006379,"44.44,65.53"
2024-05-28_16-39-18.040207,"80.84,38.10"
2024-05-28_16-39-18.071634,"88.43,51.60"
2024-05-28_16-39-18.104249,"75.05,48.52"
2024-05-28_16-39-18.137440,"48.58,69.97"
2024-05-28_16-39-18.169713,"44.37,65.72"
2024-05-28_16-39-18.202501,"76.22,49.00"
2024-05-28_16-39-18.231166,"66.92,41.33"
2024-05-28_16-39-18.264068,"67.17,70.85"
2024-05-28_16-39-18.296688,"70.73,97.61"
2024-05-28_16-39-18.329480,"77.10,59.30"
2024-05-28_16-39-18.362294,"96.51,33.27"
2024-05-28_16-39-18.395146,"75.40,70.63"
2024-05-28_16-39-18.427625,"67.83,37.82"
2024-05-28_16-39-18.456487,"55.25,56.61"
2024-05-28_16-39-18.489096,"65.73,59.44"
2024-05-28_16-39-18.521954,"57.31,54.54"
2024-05-28_16-39-18.554676,"49.48,87.07"
2024-05-28_16-39-18.588382,"99.14,34.60"
2024-05-28_16-39-18.620175,"79.65,33.60"
2024-05-28_16-39-18.652858,"72.53,73.90"
2024-05-28_16-39-18.681627,"89.54,67.47"
2024-05-28_16-39-18.714411,"64.94,38.29"
2024-05-28_16-39-18.747263,"66.12,37.62"
2024-05-28_16-39-18.779970,"82.07,59.38"
2024-05-28_16-39-18.812662,"101.32,74.11"
2024-05-28_16-39-18.845392,"81.53,75.56"
2024-05-28_16-39-18.878059,"91.95,31.75"
2024-05-28_16-39-18.906881,"75.93,27.25"
2024-05-28_16-39-18.939579,"69.97,65.39"
2024-05-28_16-39-18.972377,"77.98,46.66"
2024-05-28_16-39-19.005171,"69.48,27.62"
2024-05-28_16-39-19.037986,"88.07,93.98"
2024-05-28_16-39-19.070611,"58.94,80.60"
2024-05-28_16-39-19.103297,"69.94,47.33"
2024-05-28_16-39-19.132090,"74.20,63.18"
2024-05-28_16-39-19.164851,"69.74,43.83"
2024-05-28_16-39-19.197590,"60.96,70.29"
2024-05-28_16-39-19.230341,"31.37,74.36"
2024-05-28_16-39-19.263133,"15.07,78.12"
2024-05-28_16-39-19.295841,"77.54,77.95"
2024-05-28_16-39-19.328522,"77.09,38.27"
2024-05-28_16-39-19.357304,"69.11,56.11"
2024-05-28_16-39-19.390254,"17.92,85.29"
2024-05-28_16-39-19.422842,"29.66,84.63"
2024-05-28_16-39-19.455671,"74.63,55.42"
2024-05-28_16-39-19.488374,"73.87,61.13"
2024-05-28_16-39-19.521110,"70.19,22.81"
2024-05-28_16-39-19.553816,"81.10,63.02"
2024-05-28_16-39-19.590264,"80.63,63.60"
2024-05-28_16-39-19.615325,"82.38,83.80"
2024-05-28_16-39-19.648026,"80.67,73.88"
2024-05-28_16-39-19.680803,"70.96,58.05"
2024-05-28_16-39-19.713559,"89.22,75.07"
2024-05-28_16-39-19.746273,"99.40,86.05"
2024-05-28_16-39-19.779011,"75.44,39.78"
2024-05-28_16-39-19.807769,"90.27,61.83"
2024-05-28_16-39-19.840537,"90.67,42.48"
2024-05-28_16-39-19.873345,"64.39,35.63"
2024-05-28_16-39-19.906059,"54.01,46.23"
2024-05-28_16-39-19.938845,"62.18,45.83"
2024-05-28_16-39-19.971584,"88.22,38.76"
2024-05-28_16-39-20.004214,"88.73,40.59"
2024-05-28_16-39-20.032959,"74.90,28.14"
2024-05-28_16-39-20.065764,"65.41,79.99"
2024-05-28_16-39-20.098496,"68.23,57.50"
2024-05-28_16-39-20.131273,"98.97,42.98"
2024-05-28_16-39-20.164131,"84.21,37.64"
2024-05-28_16-39-20.196773,"70.08,28.73"
2024-05-28_16-39-20.229448,"72.82,27.14"
2024-05-28_16-39-20.258342,"86.76,34.13"
2024-05-28_16-39-20.290947,"81.39,28.08"
2024-05-28_16-39-20.323738,"85.25,26.78"
2024-05-28_16-39-20.356501,"76.31,25.25"
2024-05-28_16-39-20.389223,"75.83,63.38"
2024-05-28_16-39-20.422079,"71.01,50.14"
2024-05-28_16-39-20.454631,"68.25,54.08"
2024-05-28_16-39-20.483404,"80.28,77.32"
2024-05-28_16-39-20.516190,"37.96,86.33"
2024-05-28_16-39-20.548968,"87.45,29.27"
2024-05-28_16-39-20.581684,"62.24,50.60"
2024-05-28_16-39-20.614445,"63.35,50.63"
2024-05-28_16-39-20.647208,"61.28,71.21"
2024-05-28_16-39-20.679976,"79.74,36.95"
2024-05-28_16-39-20.708759,"21.45,65.27"
2024-05-28_16-39-20.741451,"61.92,75.83"
2024-05-28_16-39-20.774168,"82.38,37.64"
2024-05-28_16-39-20.806985,"41.22,39.11"
2024-05-28_16-39-20.839849,"55.73,41.87"
2024-05-28_16-39-20.872473,"52.14,45.93"
2024-05-28_16-39-20.905089,"62.69,27.90"
2024-05-28_16-39-20.938069,"75.63,29.90"
2024-05-28_16-39-20.966606,"63.10,48.96"
2024-05-28_16-39-20.999354,"59.90,66.68"
2024-05-28_16-39-21.032140,"73.60,87.19"
2024-05-28_16-39-21.064937,"72.50,62.39"
2024-05-28_16-39-21.097674,"69.88,51.91"
2024-05-28_16-39-21.130394,"66.33,62.03"
2024-05-28_16-39-21.163046,"27.94,84.31"
2024-05-28_16-39-21.192093,"22.78,82.52"
2024-05-28_16-39-21.224693,"30.80,93.41"
2024-05-28_16-39-21.257395,"89.12,56.86"
2024-05-28_16-39-21.290098,"77.64,83.17"
2024-05-28_16-39-21.322889,"39.37,92.51"
2024-05-28_16-39-21.355618,"63.53,53.82"
2024-05-28_16-39-21.388253,"75.82,29.17"
2024-05-28_16-39-21.417063,"85.15,36.40"
2024-05-28_16-39-21.449844,"97.05,31.56"
2024-05-28_16-39-21.482572,"69.39,68.16"
2024-05-28_16-39-21.515331,"92.36,82.31"
2024-05-28_16-39-21.548124,"95.39,90.38"
2024-05-28_16-39-21.580757,"84.73,74.76"
2024-05-28_16-39-21.613493,"64.01,61.04"
2024-05-28_16-39-21.642372,"72.86,54.57"
2024-05-28_16-39-21.675047,"48.11,55.96"
2024-05-28_16-39-21.707916,"41.94,63.91"
2024-05-28_16-39-21.740604,"71.15,69.74"
2024-05-28_16-39-21.780876,"43.54,66.05"
2024-05-28_16-39-21.805998,"49.06,71.91"
2024-05-28_16-39-21.838903,"50.33,56.79"
2024-05-28_16-39-21.867514,"81.08,43.79"
2024-05-28_16-39-21.900367,"49.49,76.93"
2024-05-28_16-39-21.933031,"67.38,44.49"
2024-05-28_16-39-21.965809,"58.57,56.07"
2024-05-28_16-39-21.998560,"45.25,68.82"
2024-05-28_16-39-22.031225,"40.57,66.51"
2024-05-28_16-39-22.064017,"75.54,69.90"
2024-05-28_16-39-22.092705,"49.67,71.24"
2024-05-28_16-39-22.125549,"68.91,76.28"
2024-05-28_16-39-22.158330,"79.05,65.45"
2024-05-28_16-39-22.191061,"69.60,66.38"
2024-05-28_16-39-22.223797,"60.18,68.47"
2024-05-28_16-39-22.256509,"53.85,51.52"
2024-05-28_16-39-22.289171,"39.75,65.11"
2024-05-28_16-39-22.317954,"41.45,72.73"
2024-05-28_16-39-22.350749,"69.11,74.40"
2024-05-28_16-39-22.383472,"98.60,81.09"
2024-05-28_16-39-22.416295,"96.08,72.20"
2024-05-28_16-39-22.449061,"70.81,61.73"
2024-05-28_16-39-22.481732,"78.80,69.07"
2024-05-28_16-39-22.514452,"90.36,78.83"
2024-05-28_16-39-22.543135,"79.04,89.25"
2024-05-28_16-39-22.575997,"61.05,71.83"
2024-05-28_16-39-22.608703,"43.11,65.17"
2024-05-28_16-39-22.641594,"40.96,71.29"
2024-05-28_16-39-22.674251,"64.20,79.03"
2024-05-28_16-39-22.706973,"76.41,67.16"
2024-05-28_16-39-22.739657,"82.99,65.71"
2024-05-28_16-39-22.768435,"63.81,71.16"
2024-05-28_16-39-22.801242,"89.86,81.42"
2024-05-28_16-39-22.833926,"88.52,73.81"
2024-05-28_16-39-22.866690,"60.56,88.34"
2024-05-28_16-39-22.899627,"44.26,61.64"
2024-05-28_16-39-22.932208,"70.37,74.32"
2024-05-28_16-39-22.965019,"76.44,90.27"
2024-05-28_16-39-22.993647,"79.76,71.84"
2024-05-28_16-39-23.026525,"67.70,74.42"
2024-05-28_16-39-23.059194,"56.41,57.73"
2024-05-28_16-39-23.092062,"75.07,70.74"
2024-05-28_16-39-23.124693,"74.34,65.45"
2024-05-28_16-39-23.157433,"67.52,61.48"
2024-05-28_16-39-23.190083,"39.17,63.20"
2024-05-28_16-39-23.218915,"81.77,68.67"
2024-05-28_16-39-23.251704,"70.42,84.79"
2024-05-28_16-39-23.284390,"97.86,78.47"
2024-05-28_16-39-23.317191,"83.01,73.14"
2024-05-28_16-39-23.349920,"65.12,76.62"
2024-05-28_16-39-23.382623,"58.65,53.39"
2024-05-28_16-39-23.415414,"61.49,68.29"
2024-05-28_16-39-23.448137,"75.44,76.23"
2024-05-28_16-39-23.476890,"39.69,63.52"
2024-05-28_16-39-23.509634,"72.79,68.77"
2024-05-28_16-39-23.542443,"81.45,84.32"
2024-05-28_16-39-23.575208,"85.63,79.60"
2024-05-28_16-39-23.607973,"94.27,64.03"
2024-05-28_16-39-23.640562,"79.56,74.40"
2024-05-28_16-39-23.673268,"67.33,61.02"
2024-05-28_16-39-23.702211,"58.04,66.06"
2024-05-28_16-39-23.734868,"58.13,64.14"
2024-05-28_16-39-23.767618,"68.26,69.97"
2024-05-28_16-39-23.800407,"78.13,69.04"
2024-05-28_16-39-23.833104,"70.77,81.79"
2024-05-28_16-39-23.865774,"76.24,84.54"
2024-05-28_16-39-23.898497,"98.06,68.30"
2024-05-28_16-39-23.927408,"86.51,64.94"
2024-05-28_16-39-23.960176,"69.63,84.41"
2024-05-28_16-39-23.992896,"71.85,47.91"
2024-05-28_16-39-24.034783,"53.60,61.82"
2024-05-28_16-39-24.058574,"63.79,63.69"
2024-05-28_16-39-24.092343,"71.36,63.87"
2024-05-28_16-39-24.123853,"90.81,82.25"
2024-05-28_16-39-24.152635,"60.35,75.44"
2024-05-28_16-39-24.185340,"94.88,75.91"
2024-05-28_16-39-24.218073,"102.40,68.18"
2024-05-28_16-39-24.250850,"73.72,72.08"
2024-05-28_16-39-24.283583,"70.67,72.32"
2024-05-28_16-39-24.316292,"50.78,56.89"
2024-05-28_16-39-24.348946,"60.23,48.26"
2024-05-28_16-39-24.377766,"65.37,61.60"
2024-05-28_16-39-24.410552,"93.12,78.88"
2024-05-28_16-39-24.443287,"77.01,78.28"
2024-05-28_16-39-24.476059,"95.77,77.49"
2024-05-28_16-39-24.508943,"95.80,61.66"
2024-05-28_16-39-24.541501,"85.86,78.85"
2024-05-28_16-39-24.574223,"78.17,46.71"
2024-05-28_16-39-24.603011,"62.79,58.45"
2024-05-28_16-39-24.636646,"48.85,44.70"
2024-05-28_16-39-24.668492,"51.99,68.69"
2024-05-28_16-39-24.701303,"84.12,71.73"
2024-05-28_16-39-24.734038,"86.03,71.94"
2024-05-28_16-39-24.766731,"89.64,77.60"
2024-05-28_16-39-24.799455,"100.87,80.15"
2024-05-28_16-39-24.828204,"86.65,77.77"
2024-05-28_16-39-24.860959,"80.82,78.69"
2024-05-28_16-39-24.893738,"77.89,52.79"
2024-05-28_16-39-24.926484,"48.82,60.37"
2024-05-28_16-39-24.959268,"49.86,54.50"
2024-05-28_16-39-24.992006,"69.97,67.90"
2024-05-28_16-39-25.024693,"91.69,74.94"
2024-05-28_16-39-25.053446,"60.57,73.80"
2024-05-28_16-39-25.086724,"100.83,86.61"
2024-05-28_16-39-25.118979,"103.38,82.28"
2024-05-28_16-39-25.151787,"76.85,83.38"
2024-05-28_16-39-25.184472,"59.04,56.87"
2024-05-28_16-39-25.217184,"63.44,54.10"
2024-05-28_16-39-25.249919,"46.52,60.53"
2024-05-28_16-39-25.278712,"59.20,78.20"
2024-05-28_16-39-25.311502,"79.87,70.21"
2024-05-28_16-39-25.344514,"89.39,72.76"
2024-05-28_16-39-25.376919,"103.66,76.31"
2024-05-28_16-39-25.409860,"97.50,74.09"
2024-05-28_16-39-25.442553,"98.13,75.91"
2024-05-28_16-39-25.475219,"74.04,77.07"
2024-05-28_16-39-25.503880,"63.52,57.79"
2024-05-28_16-39-25.536863,"65.10,49.81"
2024-05-28_16-39-25.569463,"50.62,69.20"
2024-05-28_16-39-25.602186,"59.50,70.63"
2024-05-28_16-39-25.634926,"81.90,61.66"
2024-05-28_16-39-25.667727,"80.45,73.81"
2024-05-28_16-39-25.700378,"72.30,78.55"
2024-05-28_16-39-25.729126,"97.32,82.24"
2024-05-28_16-39-25.761933,"70.62,70.13"
2024-05-28_16-39-25.794652,"89.72,76.62"
2024-05-28_16-39-25.827432,"60.36,72.06"
2024-05-28_16-39-25.860187,"70.59,36.09"
2024-05-28_16-39-25.892909,"58.67,48.77"
2024-05-28_16-39-25.925611,"76.37,71.61"
2024-05-28_16-39-25.958273,"59.51,84.01"
2024-05-28_16-39-25.987080,"74.42,41.57"
2024-05-28_16-39-26.019866,"75.14,55.90"
2024-05-28_16-39-26.052737,"45.71,65.68"
2024-05-28_16-39-26.085410,"40.05,66.69"
2024-05-28_16-39-26.118272,"68.36,33.28"
2024-05-28_16-39-26.158710,"67.03,41.43"
2024-05-28_16-39-26.183554,"62.55,57.43"
2024-05-28_16-39-26.212355,"34.77,72.78"
2024-05-28_16-39-26.245888,"57.70,44.90"
2024-05-28_16-39-26.278007,"42.92,71.08"
2024-05-28_16-39-26.310694,"40.41,74.08"
2024-05-28_16-39-26.343416,"39.51,68.35"
2024-05-28_16-39-26.376083,"63.35,67.97"
2024-05-28_16-39-26.408887,"81.98,75.26"
2024-05-28_16-39-26.437553,"81.77,81.64"
2024-05-28_16-39-26.470337,"72.72,56.38"
2024-05-28_16-39-26.503094,"67.12,69.92"
2024-05-28_16-39-26.536431,"80.71,82.93"
2024-05-28_16-39-26.568645,"47.30,58.34"
2024-05-28_16-39-26.601304,"34.28,69.77"
2024-05-28_16-39-26.633993,"74.81,69.31"
2024-05-28_16-39-26.662899,"81.72,77.83"
2024-05-28_16-39-26.695574,"85.76,78.93"
2024-05-28_16-39-26.728330,"73.61,67.00"
2024-05-28_16-39-26.761108,"63.05,59.63"
2024-05-28_16-39-26.793848,"53.92,55.14"
2024-05-28_16-39-26.826567,"56.75,64.10"
2024-05-28_16-39-26.859338,"63.76,55.75"
2024-05-28_16-39-26.888772,"81.83,88.83"
2024-05-28_16-39-26.920868,"84.05,72.53"
2024-05-28_16-39-26.953609,"62.16,71.90"
2024-05-28_16-39-26.986559,"93.43,85.61"
2024-05-28_16-39-27.019178,"93.48,75.38"
2024-05-28_16-39-27.051801,"81.84,75.45"
2024-05-28_16-39-27.084476,"65.43,56.84"
2024-05-28_16-39-27.113310,"56.60,52.58"
2024-05-28_16-39-27.146213,"59.21,56.44"
2024-05-28_16-39-27.178802,"70.50,76.71"
2024-05-28_16-39-27.211559,"45.38,80.07"
2024-05-28_16-39-27.244312,"73.55,68.40"
2024-05-28_16-39-27.277050,"72.07,70.44"
2024-05-28_16-39-27.309886,"83.42,84.01"
2024-05-28_16-39-27.338473,"94.00,75.22"
2024-05-28_16-39-27.371280,"80.55,76.62"
2024-05-28_16-39-27.404082,"67.75,57.15"
2024-05-28_16-39-27.436748,"68.78,49.58"
2024-05-28_16-39-27.469594,"53.31,82.13"
2024-05-28_16-39-27.502263,"62.96,65.44"
2024-05-28_16-39-27.534918,"72.88,70.25"
2024-05-28_16-39-27.563773,"74.97,70.29"
2024-05-28_16-39-27.596519,"70.96,72.54"
2024-05-28_16-39-27.629271,"90.56,88.23"
2024-05-28_16-39-27.662039,"91.17,61.56"
2024-05-28_16-39-27.695463,"91.60,72.32"
2024-05-28_16-39-27.727544,"74.20,68.62"
2024-05-28_16-39-27.760279,"69.01,60.68"
2024-05-28_16-39-27.788957,"51.06,63.65"
2024-05-28_16-39-27.821838,"58.14,65.30"
2024-05-28_16-39-27.854530,"68.71,75.07"
2024-05-28_16-39-27.887283,"91.52,71.54"
2024-05-28_16-39-27.920064,"86.47,87.64"
2024-05-28_16-39-27.952769,"100.90,79.80"
2024-05-28_16-39-27.985821,"86.37,62.13"
2024-05-28_16-39-28.014264,"84.73,73.17"
2024-05-28_16-39-28.046979,"70.15,72.37"
2024-05-28_16-39-28.079714,"67.11,58.32"
2024-05-28_16-39-28.112518,"49.48,38.02"
2024-05-28_16-39-28.145209,"56.25,66.80"
2024-05-28_16-39-28.177977,"88.02,71.40"
2024-05-28_16-39-28.210653,"90.05,81.71"
2024-05-28_16-39-28.239403,"85.41,82.63"
2024-05-28_16-39-28.272228,"94.39,66.00"
2024-05-28_16-39-28.305009,"86.04,75.66"
2024-05-28_16-39-28.337999,"72.98,81.04"
2024-05-28_16-39-28.370520,"69.17,49.30"
2024-05-28_16-39-28.403218,"58.01,57.11"
2024-05-28_16-39-28.436524,"42.23,46.53"
2024-05-28_16-39-28.471160,"56.86,73.15"
2024-05-28_16-39-28.497445,"88.17,75.93"
2024-05-28_16-39-28.530387,"83.96,74.55"
2024-05-28_16-39-28.563074,"94.32,83.97"
2024-05-28_16-39-28.595764,"98.20,67.51"
2024-05-28_16-39-28.628483,"79.94,64.76"
2024-05-28_16-39-28.661139,"70.50,68.32"
2024-05-28_16-39-28.689868,"67.75,51.40"
2024-05-28_16-39-28.722658,"48.71,56.26"
2024-05-28_16-39-28.755470,"41.66,72.21"
2024-05-28_16-39-28.788161,"77.73,61.92"
2024-05-28_16-39-28.821010,"83.85,80.03"
2024-05-28_16-39-28.853758,"93.74,75.57"
2024-05-28_16-39-28.886333,"94.64,72.77"
2024-05-28_16-39-28.915275,"94.19,73.66"
2024-05-28_16-39-28.947910,"83.06,74.55"
2024-05-28_16-39-28.980673,"80.75,52.66"
2024-05-28_16-39-29.013450,"67.49,50.73"
2024-05-28_16-39-29.046178,"63.61,58.94"
2024-05-28_16-39-29.078925,"48.34,51.94"
2024-05-28_16-39-29.111700,"71.49,77.96"
2024-05-28_16-39-29.140404,"83.96,68.82"
2024-05-28_16-39-29.173149,"95.94,75.91"
2024-05-28_16-39-29.205904,"93.38,85.31"
2024-05-28_16-39-29.238653,"91.76,73.83"
2024-05-28_16-39-29.271454,"81.96,75.24"
2024-05-28_16-39-29.304180,"85.17,55.66"
2024-05-28_16-39-29.336849,"81.47,46.94"
2024-05-28_16-39-29.369577,"73.71,64.64"
2024-05-28_16-39-29.398436,"64.36,74.39"
2024-05-28_16-39-29.431176,"70.84,65.82"
2024-05-28_16-39-29.463905,"84.85,76.28"
2024-05-28_16-39-29.496653,"102.86,80.65"
2024-05-28_16-39-29.529424,"94.64,81.18"
2024-05-28_16-39-29.562079,"83.51,81.66"
2024-05-28_16-39-29.594763,"81.05,41.42"
2024-05-28_16-39-29.623588,"83.59,56.49"
2024-05-28_16-39-29.656398,"73.40,59.40"
2024-05-28_16-39-29.689223,"57.89,56.35"
2024-05-28_16-39-29.721871,"78.13,70.36"
2024-05-28_16-39-29.754696,"73.99,91.00"
2024-05-28_16-39-29.787460,"99.06,78.66"
2024-05-28_16-39-29.820115,"95.20,93.99"
2024-05-28_16-39-29.848875,"92.32,69.17"
2024-05-28_16-39-29.881621,"87.33,65.26"
2024-05-28_16-39-29.914401,"91.00,64.51"
2024-05-28_16-39-29.947193,"67.04,59.75"
2024-05-28_16-39-29.979937,"57.31,57.12"
2024-05-28_16-39-30.012585,"39.28,47.72"
2024-05-28_16-39-30.045267,"74.23,49.81"
2024-05-28_16-39-30.074103,"79.24,88.13"
2024-05-28_16-39-30.106941,"96.51,85.08"
2024-05-28_16-39-30.139959,"92.96,85.36"
2024-05-28_16-39-30.172366,"91.35,68.13"
2024-05-28_16-39-30.205110,"90.96,64.34"
2024-05-28_16-39-30.237814,"72.10,71.26"
2024-05-28_16-39-30.270501,"84.89,47.16"
2024-05-28_16-39-30.299329,"56.64,58.89"
2024-05-28_16-39-30.332056,"40.95,47.27"
2024-05-28_16-39-30.364856,"70.38,67.35"
2024-05-28_16-39-30.397611,"85.30,84.32"
2024-05-28_16-39-30.430324,"95.56,75.57"
2024-05-28_16-39-30.463471,"94.31,84.26"
2024-05-28_16-39-30.495778,"99.54,67.71"
2024-05-28_16-39-30.524633,"81.87,65.24"
2024-05-28_16-39-30.557400,"70.79,68.84"
2024-05-28_16-39-30.590108,"66.63,50.58"
2024-05-28_16-39-30.622804,"57.12,56.95"
2024-05-28_16-39-30.655564,"59.20,52.73"
2024-05-28_16-39-30.688307,"73.78,76.13"
2024-05-28_16-39-30.723836,"82.05,88.69"
2024-05-28_16-39-30.749748,"94.28,74.87"
2024-05-28_16-39-30.782673,"95.37,84.71"
2024-05-28_16-39-30.815320,"97.07,72.96"
2024-05-28_16-39-30.848072,"85.59,73.20"
2024-05-28_16-39-30.880804,"81.55,52.33"
2024-05-28_16-39-30.913535,"66.58,49.89"
2024-05-28_16-39-30.946278,"71.52,56.54"
2024-05-28_16-39-30.975027,"47.18,65.92"
2024-05-28_16-39-31.008018,"72.47,55.67"
2024-05-28_16-39-31.040691,"83.50,72.36"
2024-05-28_16-39-31.074587,"85.70,74.64"
2024-05-28_16-39-31.106269,"97.69,83.43"
2024-05-28_16-39-31.138748,"95.32,72.08"
2024-05-28_16-39-31.171522,"85.51,72.04"
2024-05-28_16-39-31.200282,"82.20,68.29"
2024-05-28_16-39-31.233012,"64.22,48.95"
2024-05-28_16-39-31.265779,"70.67,62.94"
2024-05-28_16-39-31.298559,"42.01,66.70"
2024-05-28_16-39-31.331286,"48.79,63.84"
2024-05-28_16-39-31.364065,"83.89,75.81"
2024-05-28_16-39-31.396714,"86.77,76.21"
2024-05-28_16-39-31.425487,"102.42,89.35"
2024-05-28_16-39-31.458306,"90.03,61.22"
2024-05-28_16-39-31.491086,"85.31,71.70"
2024-05-28_16-39-31.523767,"89.44,48.93"
2024-05-28_16-39-31.556654,"71.05,57.57"
2024-05-28_16-39-31.589274,"70.22,53.22"
2024-05-28_16-39-31.621987,"59.93,67.27"
2024-05-28_16-39-31.650781,"49.83,63.73"
2024-05-28_16-39-31.683583,"83.02,76.83"
2024-05-28_16-39-31.716272,"88.59,82.11"
2024-05-28_16-39-31.749053,"100.44,79.27"
2024-05-28_16-39-31.781722,"90.15,60.12"
2024-05-28_16-39-31.814539,"93.86,71.49"
2024-05-28_16-39-31.847254,"80.30,70.26"
2024-05-28_16-39-31.875960,"54.32,54.59"
2024-05-28_16-39-31.908762,"68.98,53.21"
2024-05-28_16-39-31.942868,"61.09,54.32"
2024-05-28_16-39-31.974311,"75.38,59.90"
2024-05-28_16-39-32.007097,"80.21,75.36"
2024-05-28_16-39-32.039798,"92.92,81.09"
2024-05-28_16-39-32.072441,"97.56,78.78"
2024-05-28_16-39-32.101234,"94.20,60.78"
2024-05-28_16-39-32.134802,"90.97,78.23"
2024-05-28_16-39-32.166770,"82.79,46.76"
2024-05-28_16-39-32.199563,"53.31,55.78"
2024-05-28_16-39-32.232278,"69.91,53.99"
2024-05-28_16-39-32.265054,"60.16,66.93"
2024-05-28_16-39-32.297715,"76.40,73.51"
2024-05-28_16-39-32.330468,"89.05,75.26"
2024-05-28_16-39-32.359268,"93.15,79.80"
2024-05-28_16-39-32.392025,"100.84,79.77"
2024-05-28_16-39-32.424782,"88.33,61.21"
2024-05-28_16-39-32.457568,"91.05,78.46"
2024-05-28_16-39-32.490358,"84.70,45.50"
2024-05-28_16-39-32.522908,"70.53,58.42"
2024-05-28_16-39-32.555704,"69.35,53.46"
2024-05-28_16-39-32.584777,"71.28,62.00"
2024-05-28_16-39-32.617256,"75.94,67.99"
2024-05-28_16-39-32.649989,"87.61,72.88"
2024-05-28_16-39-32.682715,"94.02,80.88"
2024-05-28_16-39-32.715547,"98.99,83.85"
2024-05-28_16-39-32.748240,"92.73,70.53"
2024-05-28_16-39-32.780860,"87.04,63.84"
2024-05-28_16-39-32.809665,"83.29,44.57"
2024-05-28_16-39-32.842477,"102.17,51.21"
2024-05-28_16-39-32.876111,"69.66,54.72"
2024-05-28_16-39-32.908233,"42.10,61.60"
2024-05-28_16-39-32.940799,"89.91,67.56"
2024-05-28_16-39-32.979486,"98.64,83.30"
2024-05-28_16-39-33.012352,"95.85,81.13"
2024-05-28_16-39-33.035286,"95.64,83.76"
2024-05-28_16-39-33.067763,"92.19,70.43"
2024-05-28_16-39-33.100472,"85.28,77.23"
2024-05-28_16-39-33.133195,"80.68,45.19"
2024-05-28_16-39-33.166020,"85.79,59.15"
2024-05-28_16-39-33.198658,"56.93,58.59"
2024-05-28_16-39-33.231372,"58.56,57.31"
2024-05-28_16-39-33.260171,"79.07,70.47"
2024-05-28_16-39-33.292927,"75.75,66.06"
2024-05-28_16-39-33.325695,"102.64,86.71"
2024-05-28_16-39-33.358484,"92.18,73.41"
2024-05-28_16-39-33.391292,"92.20,68.53"
2024-05-28_16-39-33.423918,"94.38,65.43"
2024-05-28_16-39-33.456731,"87.23,71.49"
2024-05-28_16-39-33.485379,"68.57,51.42"
2024-05-28_16-39-33.518169,"55.72,57.98"
2024-05-28_16-39-33.550954,"68.86,51.83"
2024-05-28_16-39-33.583701,"75.54,59.83"
2024-05-28_16-39-33.616485,"90.36,75.90"
2024-05-28_16-39-33.649152,"101.29,78.00"
2024-05-28_16-39-33.681810,"92.65,85.22"
2024-05-28_16-39-33.710678,"99.36,68.97"
2024-05-28_16-39-33.743409,"85.16,72.21"
2024-05-28_16-39-33.776495,"88.14,68.33"
2024-05-28_16-39-33.808979,"67.89,50.11"
2024-05-28_16-39-33.841658,"63.48,56.58"
2024-05-28_16-39-33.874397,"57.27,55.33"
2024-05-28_16-39-33.907250,"66.30,66.23"
2024-05-28_16-39-33.935822,"79.13,77.12"
2024-05-28_16-39-33.968686,"91.10,71.19"
2024-05-28_16-39-34.001422,"94.34,83.90"
2024-05-28_16-39-34.034159,"97.98,72.63"
2024-05-28_16-39-34.066956,"87.41,81.24"
2024-05-28_16-39-34.099667,"83.85,53.20"
2024-05-28_16-39-34.132348,"66.60,48.99"
2024-05-28_16-39-34.161112,"69.53,56.81"
2024-05-28_16-39-34.193853,"41.86,56.53"
2024-05-28_16-39-34.226636,"45.01,66.70"
2024-05-28_16-39-34.259420,"82.51,80.09"
2024-05-28_16-39-34.292352,"81.86,79.24"
2024-05-28_16-39-34.324888,"98.97,81.15"
2024-05-28_16-39-34.357577,"95.86,84.48"
2024-05-28_16-39-34.386287,"89.30,70.75"
2024-05-28_16-39-34.419094,"84.71,67.53"
2024-05-28_16-39-34.451883,"78.03,46.82"
2024-05-28_16-39-34.484945,"68.49,61.41"
2024-05-28_16-39-34.517451,"59.29,57.29"
2024-05-28_16-39-34.550181,"42.32,73.44"
2024-05-28_16-39-34.582853,"83.18,48.41"
2024-05-28_16-39-34.611635,"82.35,76.97"
2024-05-28_16-39-34.644330,"103.71,87.90"
2024-05-28_16-39-34.677119,"91.91,75.31"
2024-05-28_16-39-34.709868,"89.04,69.58"
2024-05-28_16-39-34.742654,"92.42,66.76"
2024-05-28_16-39-34.775484,"72.77,58.73"
2024-05-28_16-39-34.808356,"86.56,48.74"
2024-05-28_16-39-34.836808,"57.88,59.23"
2024-05-28_16-39-34.869629,"44.55,74.44"
2024-05-28_16-39-34.902393,"80.53,60.79"
2024-05-28_16-39-34.935428,"95.09,83.07"
2024-05-28_16-39-34.967901,"99.91,79.05"
2024-05-28_16-39-35.000691,"91.58,74.41"
2024-05-28_16-39-35.033336,"97.00,70.28"
2024-05-28_16-39-35.066031,"83.35,70.25"
2024-05-28_16-39-35.094851,"72.09,53.88"
2024-05-28_16-39-35.127651,"67.63,53.47"
2024-05-28_16-39-35.166196,"58.59,58.30"
2024-05-28_16-39-35.193110,"58.31,74.05"
2024-05-28_16-39-35.225936,"75.72,61.75"
2024-05-28_16-39-35.258677,"91.51,82.87"
2024-05-28_16-39-35.291298,"98.29,78.41"
2024-05-28_16-39-35.320112,"94.97,74.62"
2024-05-28_16-39-35.352862,"93.64,76.38"
2024-05-28_16-39-35.385585,"86.11,63.07"
2024-05-28_16-39-35.418401,"71.82,54.61"
2024-05-28_16-39-35.451190,"68.69,52.61"
2024-05-28_16-39-35.483831,"66.08,59.59"
2024-05-28_16-39-35.516571,"75.68,69.92"
2024-05-28_16-39-35.545325,"94.64,71.00"
2024-05-28_16-39-35.587649,"92.41,76.38"
2024-05-28_16-39-35.612887,"101.02,78.65"
2024-05-28_16-39-35.645223,"90.65,74.27"
2024-05-28_16-39-35.676466,"93.65,76.51"
2024-05-28_16-39-35.709178,"86.76,63.32"
2024-05-28_16-39-35.741817,"73.30,55.07"
2024-05-28_16-39-35.770534,"66.90,52.41"
2024-05-28_16-39-35.803743,"74.42,65.05"
2024-05-28_16-39-35.836049,"75.29,61.81"
2024-05-28_16-39-35.868898,"90.76,74.64"
2024-05-28_16-39-35.901640,"92.35,82.12"
2024-05-28_16-39-35.934832,"99.74,82.18"
2024-05-28_16-39-35.967037,"95.59,81.20"
2024-05-28_16-39-35.995874,"88.92,77.13"
2024-05-28_16-39-36.028575,"86.71,61.42"
2024-05-28_16-39-36.061349,"94.62,55.56"
2024-05-28_16-39-36.094090,"56.66,60.45"
2024-05-28_16-39-36.126905,"71.97,55.48"
2024-05-28_16-39-36.159671,"73.91,75.17"
2024-05-28_16-39-36.192475,"92.86,80.14"
2024-05-28_16-39-36.221062,"97.65,77.61"
2024-05-28_16-39-36.253822,"94.93,92.66"
2024-05-28_16-39-36.286530,"96.35,67.89"
2024-05-28_16-39-36.320285,"92.06,62.08"
2024-05-28_16-39-36.352111,"95.86,74.99"
2024-05-28_16-39-36.385775,"85.31,45.43"
2024-05-28_16-39-36.417511,"73.05,59.52"
2024-05-28_16-39-36.446289,"70.97,53.78"
2024-05-28_16-39-36.479046,"60.05,49.93"
2024-05-28_16-39-36.511819,"91.32,63.54"
2024-05-28_16-39-36.544553,"98.27,88.81"
2024-05-28_16-39-36.577342,"90.33,83.48"
2024-05-28_16-39-36.610109,"95.07,80.79"
2024-05-28_16-39-36.642836,"96.12,61.84"
2024-05-28_16-39-36.671567,"92.50,80.10"
2024-05-28_16-39-36.704336,"87.76,45.03"
2024-05-28_16-39-36.737037,"71.65,59.27"
2024-05-28_16-39-36.769840,"71.38,54.16"
2024-05-28_16-39-36.802611,"85.98,79.48"
2024-05-28_16-39-36.835313,"84.51,72.44"
2024-05-28_16-39-36.868057,"97.97,79.85"
2024-05-28_16-39-36.896721,"92.54,81.63"
2024-05-28_16-39-36.929534,"100.74,80.71"
2024-05-28_16-39-36.962316,"86.70,73.63"
2024-05-28_16-39-36.995051,"93.51,81.82"
2024-05-28_16-39-37.027800,"74.16,49.13"
2024-05-28_16-39-37.060639,"58.76,57.21"
2024-05-28_16-39-37.093288,"71.70,54.40"
2024-05-28_16-39-37.122036,"59.58,57.09"
2024-05-28_16-39-37.154794,"88.30,72.42"
2024-05-28_16-39-37.187541,"81.97,72.19"
2024-05-28_16-39-37.220312,"83.03,70.84"
2024-05-28_16-39-37.253151,"50.86,67.16"
2024-05-28_16-39-37.302793,"49.36,67.52"
2024-05-28_16-39-37.318800,"52.62,55.95"
2024-05-28_16-39-37.347288,"70.63,51.61"
2024-05-28_16-39-37.380019,"67.04,38.88"
2024-05-28_16-39-37.412816,"66.91,41.96"
2024-05-28_16-39-37.445571,"77.83,58.39"
2024-05-28_16-39-37.478373,"68.94,57.56"
2024-05-28_16-39-37.511083,"57.06,82.84"
2024-05-28_16-39-37.543722,"62.58,75.31"
2024-05-28_16-39-37.576439,"74.00,97.95"
2024-05-28_16-39-37.605289,"84.98,87.45"
2024-05-28_16-39-37.641602,"64.57,41.66"
2024-05-28_16-39-37.670822,"67.37,44.88"
2024-05-28_16-39-37.703589,"56.47,56.41"
2024-05-28_16-39-37.736305,"66.40,39.80"
2024-05-28_16-39-37.769014,"75.35,35.16"
2024-05-28_16-39-37.801802,"67.88,73.55"
2024-05-28_16-39-37.830653,"79.98,59.32"
2024-05-28_16-39-37.863344,"54.56,63.75"
2024-05-28_16-39-37.896017,"67.56,63.98"
2024-05-28_16-39-37.928808,"64.72,45.61"
2024-05-28_16-39-37.961575,"63.44,63.44"
2024-05-28_16-39-37.994338,"68.48,34.93"
2024-05-28_16-39-38.027908,"66.41,73.63"
2024-05-28_16-39-38.055832,"53.41,58.19"
2024-05-28_16-39-38.088480,"80.01,33.08"
2024-05-28_16-39-38.123486,"71.41,74.00"
2024-05-28_16-39-38.154052,"56.35,63.19"
2024-05-28_16-39-38.186777,"74.36,40.20"
2024-05-28_16-39-38.219500,"51.62,58.55"
2024-05-28_16-39-38.252269,"40.58,71.62"
2024-05-28_16-39-38.281064,"74.27,75.05"
2024-05-28_16-39-38.313904,"80.16,30.81"
2024-05-28_16-39-38.346544,"76.95,58.13"
2024-05-28_16-39-38.379273,"22.73,83.89"
2024-05-28_16-39-38.412044,"71.57,53.06"
2024-05-28_16-39-38.444799,"90.37,40.69"
2024-05-28_16-39-38.477423,"50.48,82.35"
2024-05-28_16-39-38.506271,"33.53,71.54"
2024-05-28_16-39-38.539119,"27.33,84.17"
2024-05-28_16-39-38.571786,"67.02,51.87"
2024-05-28_16-39-38.604560,"66.49,56.06"
2024-05-28_16-39-38.637262,"74.23,49.65"
2024-05-28_16-39-38.670002,"68.09,29.11"
2024-05-28_16-39-38.702705,"71.53,23.50"
2024-05-28_16-39-38.731492,"67.95,69.56"
2024-05-28_16-39-38.764277,"53.05,69.41"
2024-05-28_16-39-38.797529,"74.76,63.16"
2024-05-28_16-39-38.829797,"37.63,67.39"
2024-05-28_16-39-38.862592,"69.52,58.45"
2024-05-28_16-39-38.895244,"58.21,30.17"
2024-05-28_16-39-38.927969,"56.68,70.84"
2024-05-28_16-39-38.956778,"51.10,70.17"
2024-05-28_16-39-38.989552,"65.88,41.43"
2024-05-28_16-39-39.022252,"78.95,67.55"
2024-05-28_16-39-39.055219,"88.09,74.46"
2024-05-28_16-39-39.087739,"76.61,86.04"
2024-05-28_16-39-39.120529,"35.02,73.05"
2024-05-28_16-39-39.153201,"56.12,72.38"
2024-05-28_16-39-39.181962,"72.89,97.84"
2024-05-28_16-39-39.214787,"76.85,64.47"
2024-05-28_16-39-39.247528,"52.42,44.29"
2024-05-28_16-39-39.280258,"47.63,67.63"
2024-05-28_16-39-39.313049,"65.69,45.15"
2024-05-28_16-39-39.345796,"55.74,55.01"
2024-05-28_16-39-39.378462,"78.01,40.10"
2024-05-28_16-39-39.407262,"72.10,50.17"
2024-05-28_16-39-39.440310,"64.53,65.25"
2024-05-28_16-39-39.496859,"70.54,49.43"
2024-05-28_16-39-39.512947,"91.07,45.68"
2024-05-28_16-39-39.539987,"79.66,18.90"
2024-05-28_16-39-39.578268,"82.42,21.06"
2024-05-28_16-39-39.614717,"38.34,87.34"
2024-05-28_16-39-39.633157,"72.58,25.03"
2024-05-28_16-39-39.665355,"87.09,27.94"
2024-05-28_16-39-39.698023,"42.26,66.29"
2024-05-28_16-39-39.730797,"32.96,79.95"
2024-05-28_16-39-39.763602,"96.98,71.17"
2024-05-28_16-39-39.796321,"73.81,34.14"
2024-05-28_16-39-39.828954,"71.02,66.35"
2024-05-28_16-39-39.857795,"37.09,52.90"
2024-05-28_16-39-39.890643,"69.48,43.39"
2024-05-28_16-39-39.923374,"95.90,26.10"
2024-05-28_16-39-39.956163,"86.78,26.72"
2024-05-28_16-39-39.988715,"84.50,27.33"
2024-05-28_16-39-40.021518,"70.90,23.04"
2024-05-28_16-39-40.054217,"76.03,38.14"
2024-05-28_16-39-40.083826,"50.55,71.96"
2024-05-28_16-39-40.115765,"59.39,34.08"
2024-05-28_16-39-40.148642,"29.06,99.03"
2024-05-28_16-39-40.181306,"24.05,87.33"
2024-05-28_16-39-40.214079,"51.73,59.78"
2024-05-28_16-39-40.246779,"86.74,20.53"
2024-05-28_16-39-40.279478,"56.91,67.79"
2024-05-28_16-39-40.312149,"53.56,67.71"
2024-05-28_16-39-40.340929,"55.13,64.83"
2024-05-28_16-39-40.373746,"95.91,21.31"
2024-05-28_16-39-40.409366,"56.69,51.30"
2024-05-28_16-39-40.439336,"33.15,89.98"
2024-05-28_16-39-40.472058,"60.75,77.08"
2024-05-28_16-39-40.504885,"27.78,75.22"
2024-05-28_16-39-40.537388,"34.07,66.02"
2024-05-28_16-39-40.566261,"38.10,68.42"
2024-05-28_16-39-40.599062,"40.77,54.27"
2024-05-28_16-39-40.631749,"26.77,70.85"
2024-05-28_16-39-40.664515,"30.47,74.10"
2024-05-28_16-39-40.697313,"74.98,67.64"
2024-05-28_16-39-40.730034,"74.68,56.07"
2024-05-28_16-39-40.762662,"74.38,37.69"
2024-05-28_16-39-40.791536,"78.70,54.25"
2024-05-28_16-39-40.824267,"81.48,33.61"
2024-05-28_16-39-40.857027,"80.34,51.66"
2024-05-28_16-39-40.889955,"85.59,49.90"
2024-05-28_16-39-40.922516,"67.94,62.40"
2024-05-28_16-39-40.955219,"52.07,74.96"
2024-05-28_16-39-40.987930,"79.95,33.45"
2024-05-28_16-39-41.016737,"74.67,40.28"
2024-05-28_16-39-41.049502,"67.61,39.57"
2024-05-28_16-39-41.082255,"66.97,39.74"
2024-05-28_16-39-41.115064,"67.16,41.82"
2024-05-28_16-39-41.147766,"67.10,37.67"
2024-05-28_16-39-41.180467,"84.40,29.57"
2024-05-28_16-39-41.213211,"61.74,78.14"
2024-05-28_16-39-41.242071,"69.58,72.94"
2024-05-28_16-39-41.274764,"33.52,81.71"
2024-05-28_16-39-41.307555,"85.54,56.35"
2024-05-28_16-39-41.340284,"53.63,87.19"
2024-05-28_16-39-41.373184,"69.94,50.33"
2024-05-28_16-39-41.405888,"85.64,56.37"
2024-05-28_16-39-41.438406,"74.44,40.41"
2024-05-28_16-39-41.467235,"86.11,49.58"
2024-05-28_16-39-41.499985,"83.78,59.54"
2024-05-28_16-39-41.532795,"75.59,60.74"
2024-05-28_16-39-41.565526,"87.40,60.49"
2024-05-28_16-39-41.598270,"85.91,77.15"
2024-05-28_16-39-41.630938,"89.56,49.55"
2024-05-28_16-39-41.663655,"86.97,57.47"
2024-05-28_16-39-41.692405,"60.13,67.70"
2024-05-28_16-39-41.725246,"81.87,79.38"
2024-05-28_16-39-41.758036,"75.48,73.92"
2024-05-28_16-39-41.793367,"88.05,69.96"
2024-05-28_16-39-41.823747,"98.71,84.36"
2024-05-28_16-39-41.856332,"60.88,70.02"
2024-05-28_16-39-41.888886,"43.23,63.45"
2024-05-28_16-39-41.917768,"42.55,49.52"
2024-05-28_16-39-41.950486,"48.71,59.68"
2024-05-28_16-39-41.983250,"40.96,73.12"
2024-05-28_16-39-42.017670,"61.91,70.49"
2024-05-28_16-39-42.048754,"44.21,52.85"
2024-05-28_16-39-42.081494,"40.88,64.22"
2024-05-28_16-39-42.114182,"41.65,70.03"
2024-05-28_16-39-42.142894,"59.98,75.78"
2024-05-28_16-39-42.175702,"68.10,70.65"
2024-05-28_16-39-42.208495,"69.99,84.05"
2024-05-28_16-39-42.241284,"70.75,81.55"
2024-05-28_16-39-42.273987,"37.57,72.03"
2024-05-28_16-39-42.306762,"48.39,57.66"
2024-05-28_16-39-42.339596,"41.43,63.69"
2024-05-28_16-39-42.368234,"46.76,62.73"
2024-05-28_16-39-42.400942,"42.38,69.25"
2024-05-28_16-39-42.433698,"34.81,82.14"
2024-05-28_16-39-42.466516,"42.49,68.04"
2024-05-28_16-39-42.499280,"73.51,67.57"
2024-05-28_16-39-42.532022,"73.46,80.57"
2024-05-28_16-39-42.564718,"82.46,71.95"
2024-05-28_16-39-42.593513,"46.62,48.44"
2024-05-28_16-39-42.626224,"61.99,73.83"
2024-05-28_16-39-42.659001,"61.26,49.79"
2024-05-28_16-39-42.691812,"65.53,60.55"
2024-05-28_16-39-42.724569,"73.72,83.17"
2024-05-28_16-39-42.757275,"49.55,62.63"
2024-05-28_16-39-42.789931,"84.50,33.40"
2024-05-28_16-39-42.818826,"66.45,72.73"
2024-05-28_16-39-42.851498,"59.53,79.57"
2024-05-28_16-39-42.884180,"64.60,71.72"
2024-05-28_16-39-42.917006,"73.01,49.72"
2024-05-28_16-39-42.949815,"83.74,35.69"
2024-05-28_16-39-42.982482,"43.79,72.09"
2024-05-28_16-39-43.015214,"72.44,86.45"
2024-05-28_16-39-43.048033,"87.43,59.16"
2024-05-28_16-39-43.076751,"72.46,40.19"
2024-05-28_16-39-43.109486,"73.94,38.07"
2024-05-28_16-39-43.142222,"66.66,41.45"
2024-05-28_16-39-43.175002,"67.20,36.87"
2024-05-28_16-39-43.207818,"84.21,83.40"
2024-05-28_16-39-43.240441,"62.48,72.13"
2024-05-28_16-39-43.273126,"54.67,53.19"
2024-05-28_16-39-43.301931,"44.26,64.56"
2024-05-28_16-39-43.334748,"53.35,70.84"
2024-05-28_16-39-43.367527,"73.80,88.35"
2024-05-28_16-39-43.400322,"60.49,41.25"
2024-05-28_16-39-43.432995,"71.85,56.39"
2024-05-28_16-39-43.465827,"76.78,34.35"
2024-05-28_16-39-43.498390,"51.13,74.50"
2024-05-28_16-39-43.527200,"37.85,87.02"
2024-05-28_16-39-43.559997,"30.70,82.96"
2024-05-28_16-39-43.592721,"59.33,90.64"
2024-05-28_16-39-43.625472,"64.05,63.84"
2024-05-28_16-39-43.658297,"69.56,49.17"
2024-05-28_16-39-43.690938,"67.66,38.77"
2024-05-28_16-39-43.723661,"67.17,40.17"
2024-05-28_16-39-43.752467,"90.23,33.01"
2024-05-28_16-39-43.785315,"82.31,64.85"
2024-05-28_16-39-43.817987,"69.38,74.98"
2024-05-28_16-39-43.850778,"55.65,74.18"
2024-05-28_16-39-43.884329,"58.63,71.62"
2024-05-28_16-39-43.916219,"57.64,66.51"
2024-05-28_16-39-43.948908,"64.71,75.92"
2024-05-28_16-39-43.977723,"65.78,40.95"
2024-05-28_16-39-44.010477,"66.95,39.75"
2024-05-28_16-39-44.043205,"67.24,41.88"
2024-05-28_16-39-44.086201,"66.46,39.08"
2024-05-28_16-39-44.108844,"49.96,87.95"
2024-05-28_16-39-44.141478,"38.82,88.50"
2024-05-28_16-39-44.174151,"38.85,92.08"
2024-05-28_16-39-44.202955,"27.84,73.84"
2024-05-28_16-39-44.235796,"54.30,83.96"
2024-05-28_16-39-44.268489,"31.12,58.90"
2024-05-28_16-39-44.301299,"38.58,68.48"
2024-05-28_16-39-44.333985,"34.82,76.74"
2024-05-28_16-39-44.366706,"31.48,74.25"
2024-05-28_16-39-44.399429,"34.64,69.33"
2024-05-28_16-39-44.428184,"27.78,71.93"
2024-05-28_16-39-44.460973,"35.42,81.63"
2024-05-28_16-39-44.493741,"37.36,87.10"
2024-05-28_16-39-44.526497,"39.73,74.85"
2024-05-28_16-39-44.559356,"30.87,68.99"
2024-05-28_16-39-44.592033,"31.71,71.02"
2024-05-28_16-39-44.624674,"36.24,74.27"
2024-05-28_16-39-44.653464,"45.98,81.32"
2024-05-28_16-39-44.686190,"50.90,51.88"
2024-05-28_16-39-44.719000,"41.22,74.33"
2024-05-28_16-39-44.751771,"39.07,90.28"
2024-05-28_16-39-44.784610,"36.79,89.90"
2024-05-28_16-39-44.817307,"43.09,87.31"
2024-05-28_16-39-44.849937,"37.96,87.85"
2024-05-28_16-39-44.878706,"34.03,81.04"
2024-05-28_16-39-44.911535,"53.52,61.03"
2024-05-28_16-39-44.944190,"35.54,58.37"
2024-05-28_16-39-44.977009,"38.67,80.55"
2024-05-28_16-39-45.009793,"54.18,58.14"
2024-05-28_16-39-45.042534,"56.13,74.68"
2024-05-28_16-39-45.075192,"37.04,41.04"
2024-05-28_16-39-45.103942,"61.35,55.81"
2024-05-28_16-39-45.136878,"70.21,43.26"
2024-05-28_16-39-45.169470,"65.03,69.26"
2024-05-28_16-39-45.202264,"46.49,69.38"
2024-05-28_16-39-45.234983,"43.61,66.03"
2024-05-28_16-39-45.267776,"39.22,74.54"
2024-05-28_16-39-45.300447,"48.18,73.31"
2024-05-28_16-39-45.329265,"66.79,40.26"
2024-05-28_16-39-45.361990,"67.40,41.87"
2024-05-28_16-39-45.394734,"80.59,35.32"
2024-05-28_16-39-45.427493,"89.32,24.56"
2024-05-28_16-39-45.460262,"83.74,25.02"
2024-05-28_16-39-45.493055,"74.57,73.79"
2024-05-28_16-39-45.525656,"49.08,67.64"
2024-05-28_16-39-45.554469,"73.98,65.79"
2024-05-28_16-39-45.587193,"91.22,37.78"
2024-05-28_16-39-45.619990,"78.42,39.68"
2024-05-28_16-39-45.652751,"54.41,39.50"
2024-05-28_16-39-45.685537,"43.50,39.69"
2024-05-28_16-39-45.718270,"72.13,39.15"
2024-05-28_16-39-45.751152,"57.39,43.89"
2024-05-28_16-39-45.779750,"43.63,39.32"
2024-05-28_16-39-45.812518,"52.76,41.54"
2024-05-28_16-39-45.845239,"63.22,27.93"
2024-05-28_16-39-45.878007,"82.43,56.20"
2024-05-28_16-39-45.910820,"93.38,69.85"
2024-05-28_16-39-45.943571,"40.08,65.06"
2024-05-28_16-39-45.976269,"63.59,43.09"
2024-05-28_16-39-46.004988,"71.00,35.76"
2024-05-28_16-39-46.037756,"82.26,38.76"
2024-05-28_16-39-46.070544,"85.49,34.43"
2024-05-28_16-39-46.103262,"74.23,39.20"
2024-05-28_16-39-46.136003,"88.46,39.41"
2024-05-28_16-39-46.168781,"90.20,38.55"
2024-05-28_16-39-46.201572,"98.22,42.51"
2024-05-28_16-39-46.234134,"87.87,78.78"
2024-05-28_16-39-46.263023,"86.94,76.65"
2024-05-28_16-39-46.295725,"86.46,75.58"
2024-05-28_16-39-46.328529,"70.73,55.75"
2024-05-28_16-39-46.370319,"78.82,33.48"
2024-05-28_16-39-46.394124,"76.01,37.64"
2024-05-28_16-39-46.426751,"88.03,57.62"
2024-05-28_16-39-46.459561,"74.92,36.49"
2024-05-28_16-39-46.488296,"98.47,43.40"
2024-05-28_16-39-46.521040,"87.96,38.09"
2024-05-28_16-39-46.553760,"87.83,70.57"
2024-05-28_16-39-46.586492,"92.32,43.35"
2024-05-28_16-39-46.619298,"65.28,77.06"
2024-05-28_16-39-46.651997,"65.55,47.74"
2024-05-28_16-39-46.684689,"73.59,38.76"
2024-05-28_16-39-46.713579,"57.11,36.09"
2024-05-28_16-39-46.746322,"71.39,34.98"
2024-05-28_16-39-46.779008,"68.94,49.69"
2024-05-28_16-39-46.811813,"55.56,59.86"
2024-05-28_16-39-46.844513,"75.31,38.74"
2024-05-28_16-39-46.877187,"88.50,39.15"
2024-05-28_16-39-46.909983,"90.01,60.88"
2024-05-28_16-39-46.938750,"95.73,92.28"
2024-05-28_16-39-46.971519,"86.14,71.32"
2024-05-28_16-39-47.004308,"76.77,52.51"
2024-05-28_16-39-47.037014,"72.38,57.22"
2024-05-28_16-39-47.069799,"65.05,61.56"
2024-05-28_16-39-47.102485,"87.68,43.33"
2024-05-28_16-39-47.135208,"85.81,64.01"
2024-05-28_16-39-47.163998,"81.22,31.73"
2024-05-28_16-39-47.196744,"66.72,38.43"
2024-05-28_16-39-47.229556,"57.90,54.22"
2024-05-28_16-39-47.262302,"31.10,54.47"
2024-05-28_16-39-47.295051,"30.03,91.23"
2024-05-28_16-39-47.327797,"62.19,73.48"
2024-05-28_16-39-47.360463,"46.04,70.63"
2024-05-28_16-39-47.389253,"72.90,30.08"
2024-05-28_16-39-47.422018,"79.19,31.43"
2024-05-28_16-39-47.454893,"88.28,65.42"
2024-05-28_16-39-47.487500,"67.98,75.83"
2024-05-28_16-39-47.520333,"55.55,71.27"
2024-05-28_16-39-47.553014,"55.55,67.21"
2024-05-28_16-39-47.585677,"42.84,66.05"
2024-05-28_16-39-47.614489,"39.13,74.49"
2024-05-28_16-39-47.647252,"54.61,74.75"
2024-05-28_16-39-47.679988,"67.63,67.28"
2024-05-28_16-39-47.712800,"67.48,41.39"
2024-05-28_16-39-47.745569,"80.46,35.17"
2024-05-28_16-39-47.778289,"87.38,23.95"
2024-05-28_16-39-47.810968,"73.44,79.90"
2024-05-28_16-39-47.839709,"55.84,74.98"
2024-05-28_16-39-47.872493,"50.17,68.72"
2024-05-28_16-39-47.905290,"58.00,74.80"
2024-05-28_16-39-47.938018,"39.88,67.40"
2024-05-28_16-39-47.970798,"40.39,66.63"
2024-05-28_16-39-48.003538,"51.50,66.21"
2024-05-28_16-39-48.036271,"44.42,78.24"
2024-05-28_16-39-48.065025,"64.98,76.37"
2024-05-28_16-39-48.097774,"52.49,46.09"
2024-05-28_16-39-48.130601,"39.98,89.62"
2024-05-28_16-39-48.163319,"37.77,86.38"
2024-05-28_16-39-48.196088,"51.13,84.94"
2024-05-28_16-39-48.228809,"35.41,86.98"
2024-05-28_16-39-48.261517,"35.53,90.69"
2024-05-28_16-39-48.290245,"31.73,88.68"
2024-05-28_16-39-48.323022,"38.39,65.36"
2024-05-28_16-39-48.355965,"80.86,80.33"
2024-05-28_16-39-48.388537,"38.79,87.34"
2024-05-28_16-39-48.421319,"39.51,90.12"
2024-05-28_16-39-48.454018,"38.29,97.72"
2024-05-28_16-39-48.486900,"42.85,87.47"
2024-05-28_16-39-48.515549,"39.40,85.85"
2024-05-28_16-39-48.548317,"37.76,75.45"
2024-05-28_16-39-48.581030,"39.38,89.54"
2024-05-28_16-39-48.617660,"34.94,91.72"
2024-05-28_16-39-48.647433,"26.05,75.72"
2024-05-28_16-39-48.679356,"29.91,75.25"
2024-05-28_16-39-48.712017,"29.01,75.75"
2024-05-28_16-39-48.741723,"29.44,86.48"
2024-05-28_16-39-48.773512,"33.88,75.21"
2024-05-28_16-39-48.806453,"28.48,66.77"
2024-05-28_16-39-48.839152,"39.14,73.66"
2024-05-28_16-39-48.871817,"39.21,90.57"
2024-05-28_16-39-48.904638,"37.90,97.81"
2024-05-28_16-39-48.937296,"38.90,74.03"
2024-05-28_16-39-48.966013,"30.60,63.54"
2024-05-28_16-39-48.998788,"28.58,76.65"
2024-05-28_16-39-49.031543,"26.77,78.58"
2024-05-28_16-39-49.064350,"33.88,75.87"
2024-05-28_16-39-49.097077,"29.44,75.04"
2024-05-28_16-39-49.129843,"29.97,75.46"
2024-05-28_16-39-49.162501,"34.61,56.99"
2024-05-28_16-39-49.191295,"69.20,49.92"
2024-05-28_16-39-49.224033,"87.38,34.41"
2024-05-28_16-39-49.256829,"65.76,33.27"
2024-05-28_16-39-49.289522,"70.71,70.47"
2024-05-28_16-39-49.322376,"35.61,84.31"
2024-05-28_16-39-49.355164,"68.50,58.24"
2024-05-28_16-39-49.387950,"57.29,71.67"
2024-05-28_16-39-49.420500,"61.43,68.70"
2024-05-28_16-39-49.449321,"74.65,65.56"
2024-05-28_16-39-49.482574,"65.86,44.98"
2024-05-28_16-39-49.514833,"73.36,60.66"
2024-05-28_16-39-49.547605,"75.13,76.19"
2024-05-28_16-39-49.580314,"80.96,73.79"
2024-05-28_16-39-49.613037,"67.90,83.37"
2024-05-28_16-39-49.645729,"59.29,70.94"
2024-05-28_16-39-49.674506,"64.07,70.50"
2024-05-28_16-39-49.707480,"78.67,63.24"
2024-05-28_16-39-49.740004,"78.25,83.09"
2024-05-28_16-39-49.772942,"84.47,75.72"
2024-05-28_16-39-49.805631,"78.79,78.94"
2024-05-28_16-39-49.838417,"53.12,74.11"
2024-05-28_16-39-49.870985,"58.58,73.87"
2024-05-28_16-39-49.899836,"57.71,81.29"
2024-05-28_16-39-49.932705,"62.81,69.75"
2024-05-28_16-39-49.965337,"67.16,69.78"
2024-05-28_16-39-49.998114,"84.61,82.88"
2024-05-28_16-39-50.030910,"78.04,74.68"
2024-05-28_16-39-50.063583,"95.36,61.54"
2024-05-28_16-39-50.096266,"53.59,78.91"
2024-05-28_16-39-50.125049,"48.94,78.28"
2024-05-28_16-39-50.157847,"107.80,62.91"
2024-05-28_16-39-50.190714,"77.38,55.80"
2024-05-28_16-39-50.223329,"74.78,72.70"
2024-05-28_16-39-50.256312,"77.54,78.29"
2024-05-28_16-39-50.288836,"73.38,37.51"
2024-05-28_16-39-50.321522,"61.91,24.23"
2024-05-28_16-39-50.350338,"75.86,24.14"
2024-05-28_16-39-50.383968,"90.35,24.51"
2024-05-28_16-39-50.415918,"86.81,55.04"
2024-05-28_16-39-50.448610,"75.31,60.85"
2024-05-28_16-39-50.481372,"64.92,69.09"
2024-05-28_16-39-50.514102,"68.03,55.41"
2024-05-28_16-39-50.546768,"73.54,69.54"
2024-05-28_16-39-50.575568,"58.28,23.93"
2024-05-28_16-39-50.608381,"53.37,22.52"
2024-05-28_16-39-50.641161,"48.96,21.64"
2024-05-28_16-39-50.673954,"54.76,23.47"
2024-05-28_16-39-50.706724,"49.81,24.16"
2024-05-28_16-39-50.739321,"57.82,66.85"
2024-05-28_16-39-50.772036,"64.74,60.39"
2024-05-28_16-39-50.800856,"57.42,29.92"
2024-05-28_16-39-50.834332,"55.68,47.22"
2024-05-28_16-39-50.866374,"72.00,51.92"
2024-05-28_16-39-50.900695,"78.13,42.36"
2024-05-28_16-39-50.931923,"60.21,21.80"
2024-05-28_16-39-50.964599,"77.97,26.22"
2024-05-28_16-39-50.997318,"97.52,32.71"
2024-05-28_16-39-51.026294,"66.85,30.56"
2024-05-28_16-39-51.058845,"71.90,55.75"
2024-05-28_16-39-51.091701,"52.22,22.44"
2024-05-28_16-39-51.124359,"44.22,72.04"
2024-05-28_16-39-51.157284,"17.89,67.18"
2024-05-28_16-39-51.190003,"29.42,39.44"
2024-05-28_16-39-51.222833,"20.93,48.38"
2024-05-28_16-39-51.251339,"55.19,41.74"
2024-05-28_16-39-51.284043,"50.25,47.88"
2024-05-28_16-39-51.316903,"60.39,45.32"
2024-05-28_16-39-51.349650,"55.47,63.65"
2024-05-28_16-39-51.383086,"66.20,48.07"
2024-05-28_16-39-51.415188,"74.24,49.51"
2024-05-28_16-39-51.447827,"81.62,56.14"
2024-05-28_16-39-51.476560,"70.31,44.15"
2024-05-28_16-39-51.509410,"61.84,55.77"
2024-05-28_16-39-51.542083,"89.76,66.39"
2024-05-28_16-39-51.574891,"74.26,59.81"
2024-05-28_16-39-51.607679,"68.53,48.09"
2024-05-28_16-39-51.641910,"67.77,63.79"
2024-05-28_16-39-51.673158,"66.87,61.81"
2024-05-28_16-39-51.701877,"86.55,56.96"
2024-05-28_16-39-51.734769,"64.79,59.73"
2024-05-28_16-39-51.767352,"67.87,50.56"
2024-05-28_16-39-51.800217,"60.63,73.08"
2024-05-28_16-39-51.833544,"67.28,41.38"
2024-05-28_16-39-51.865711,"80.27,51.80"
2024-05-28_16-39-51.898379,"42.72,46.86"
2024-05-28_16-39-51.927170,"63.16,67.38"
2024-05-28_16-39-51.959906,"53.33,27.44"
2024-05-28_16-39-51.992607,"52.66,70.40"
2024-05-28_16-39-52.025397,"51.10,53.21"
2024-05-28_16-39-52.058209,"17.40,86.08"
2024-05-28_16-39-52.090901,"69.04,54.17"
2024-05-28_16-39-52.123592,"24.25,84.04"
2024-05-28_16-39-52.152338,"28.54,96.79"
2024-05-28_16-39-52.185133,"26.28,82.94"
2024-05-28_16-39-52.217912,"68.14,56.09"
2024-05-28_16-39-52.250653,"36.51,94.34"
2024-05-28_16-39-52.283673,"73.26,55.31"
2024-05-28_16-39-52.316203,"85.44,88.18"
2024-05-28_16-39-52.348870,"86.24,32.23"
2024-05-28_16-39-52.377603,"82.75,30.60"
2024-05-28_16-39-52.410425,"71.72,64.79"
2024-05-28_16-39-52.444210,"75.37,80.93"
2024-05-28_16-39-52.475930,"76.98,51.48"
2024-05-28_16-39-52.508727,"37.76,55.00"
2024-05-28_16-39-52.542467,"26.12,83.98"
2024-05-28_16-39-52.574128,"49.86,85.96"
2024-05-28_16-39-52.602900,"81.53,29.98"
2024-05-28_16-39-52.635609,"65.02,55.39"
2024-05-28_16-39-52.668529,"40.45,73.95"
2024-05-28_16-39-52.701186,"62.54,63.05"
2024-05-28_16-39-52.734454,"77.12,69.41"
2024-05-28_16-39-52.766715,"86.91,34.41"
2024-05-28_16-39-52.799377,"75.60,29.45"
2024-05-28_16-39-52.828163,"64.22,30.13"
2024-05-28_16-39-52.860948,"49.20,85.40"
2024-05-28_16-39-52.893671,"76.39,18.96"
2024-05-28_16-39-52.926424,"82.64,62.85"
2024-05-28_16-39-52.959228,"76.20,82.38"
2024-05-28_16-39-52.991911,"58.93,52.35"
2024-05-28_16-39-53.024719,"63.66,73.01"
2024-05-28_16-39-53.057385,"60.92,85.78"
2024-05-28_16-39-53.086151,"56.39,66.85"
2024-05-28_16-39-53.118943,"57.31,62.89"
2024-05-28_16-39-53.151690,"56.47,12.98"
2024-05-28_16-39-53.184467,"70.79,47.68"
2024-05-28_16-39-53.217214,"67.70,49.81"
2024-05-28_16-39-53.249910,"64.86,22.76"
2024-05-28_16-39-53.282674,"62.83,37.69"
2024-05-28_16-39-53.311501,"64.18,39.20"
2024-05-28_16-39-53.352687,"54.62,31.63"
2024-05-28_16-39-53.382645,"58.20,69.89"
2024-05-28_16-39-53.409727,"61.53,63.55"
2024-05-28_16-39-53.442450,"66.00,80.46"
2024-05-28_16-39-53.475180,"67.06,83.44"
2024-05-28_16-39-53.508011,"69.14,65.93"
2024-05-28_16-39-53.536632,"65.06,37.19"
2024-05-28_16-39-53.569448,"69.21,40.49"
2024-05-28_16-39-53.602232,"55.91,29.61"
2024-05-28_16-39-53.634939,"56.69,37.71"
2024-05-28_16-39-53.667738,"53.60,32.04"
2024-05-28_16-39-53.700438,"52.94,52.19"
2024-05-28_16-39-53.733094,"51.44,52.77"
2024-05-28_16-39-53.761982,"58.80,86.65"
2024-05-28_16-39-53.794758,"56.38,70.45"
2024-05-28_16-39-53.827657,"66.50,66.98"
2024-05-28_16-39-53.860289,"58.87,69.74"
2024-05-28_16-39-53.893122,"61.08,30.86"
2024-05-28_16-39-53.925784,"55.61,26.08"
2024-05-28_16-39-53.958449,"56.61,34.93"
2024-05-28_16-39-53.987301,"59.70,30.98"
2024-05-28_16-39-54.020011,"49.07,37.49"
2024-05-28_16-39-54.052726,"48.28,65.45"
2024-05-28_16-39-54.085581,"48.63,64.05"
2024-05-28_16-39-54.118429,"57.46,76.39"
2024-05-28_16-39-54.198795,"61.50,58.56"
2024-05-28_16-39-54.199601,"58.04,66.78"
2024-05-28_16-39-54.218142,"68.87,55.71"
2024-05-28_16-39-54.245337,"56.88,22.41"
2024-05-28_16-39-54.278039,"57.64,34.22"
2024-05-28_16-39-54.310869,"53.61,33.73"
2024-05-28_16-39-54.343509,"53.01,28.17"
2024-05-28_16-39-54.376192,"50.80,32.31"
2024-05-28_16-39-54.409009,"48.21,48.74"
2024-05-28_16-39-54.441143,"54.52,56.20"
2024-05-28_16-39-54.482345,"45.73,92.45"
2024-05-28_16-39-54.505029,"62.98,60.19"
2024-05-28_16-39-54.545234,"58.16,69.39"
2024-05-28_16-39-54.583874,"59.22,51.82"
2024-05-28_16-39-54.608228,"54.10,28.13"
2024-05-28_16-39-54.724614,"51.73,28.83"
2024-05-28_16-39-54.724990,"52.45,25.80"
2024-05-28_16-39-54.725127,"47.90,31.93"
2024-05-28_16-39-54.751439,"51.43,26.72"
2024-05-28_16-39-54.768042,"43.49,66.34"
2024-05-28_16-39-54.809418,"52.11,75.41"
2024-05-28_16-39-54.827102,"52.98,73.44"
2024-05-28_16-39-54.859888,"53.74,48.80"
2024-05-28_16-39-54.888320,"58.71,50.81"
2024-05-28_16-39-54.923018,"54.02,21.58"
2024-05-28_16-39-54.953875,"55.94,27.43"
2024-05-28_16-39-54.986520,"50.40,21.79"
2024-05-28_16-39-55.019257,"52.77,29.25"
2024-05-28_16-39-55.051972,"48.81,30.92"
2024-05-28_16-39-55.084719,"46.03,25.34"
2024-05-28_16-39-55.113494,"46.50,69.06"
2024-05-28_16-39-55.146360,"47.96,81.23"
2024-05-28_16-39-55.179099,"55.92,73.22"
2024-05-28_16-39-55.211986,"53.80,71.54"
2024-05-28_16-39-55.299815,"59.23,49.73"
2024-05-28_16-39-55.300033,"55.43,25.71"
2024-05-28_16-39-55.317337,"57.84,22.51"
2024-05-28_16-39-55.339929,"49.86,28.51"
2024-05-28_16-39-55.371515,"51.17,29.85"
2024-05-28_16-39-55.404354,"50.07,26.70"
2024-05-28_16-39-55.437018,"49.00,31.01"
2024-05-28_16-39-55.469813,"49.96,72.00"
2024-05-28_16-39-55.502532,"49.57,50.54"
2024-05-28_16-39-55.535260,"52.43,75.36"
2024-05-28_16-39-55.563992,"57.48,48.35"
2024-05-28_16-39-55.596780,"57.75,51.37"
2024-05-28_16-39-55.629535,"57.95,26.80"
2024-05-28_16-39-55.662303,"52.88,22.94"
2024-05-28_16-39-55.695123,"55.38,31.17"
2024-05-28_16-39-55.727847,"50.26,24.39"
2024-05-28_16-39-55.762151,"53.89,30.89"
2024-05-28_16-39-55.797670,"47.17,65.27"
2024-05-28_16-39-55.822203,"45.90,59.61"
2024-05-28_16-39-55.854779,"52.69,71.52"
2024-05-28_16-39-55.887595,"55.12,73.02"
2024-05-28_16-39-55.920362,"57.32,65.64"
2024-05-28_16-39-55.953267,"57.68,25.54"
2024-05-28_16-39-55.985734,"58.11,22.48"
2024-05-28_16-39-56.014525,"55.34,29.66"
2024-05-28_16-39-56.047246,"56.38,22.93"
2024-05-28_16-39-56.080065,"51.26,32.39"
2024-05-28_16-39-56.112863,"49.06,30.77"
2024-05-28_16-39-56.145589,"48.43,48.41"
2024-05-28_16-39-56.178466,"46.56,71.96"
2024-05-28_16-39-56.211096,"49.71,88.15"
2024-05-28_16-39-56.241181,"56.94,67.43"
2024-05-28_16-39-56.272530,"59.70,66.36"
2024-05-28_16-39-56.305336,"57.56,48.94"
2024-05-28_16-39-56.345612,"56.97,26.95"
2024-05-28_16-39-56.395968,"53.62,27.25"
2024-05-28_16-39-56.403776,"51.68,24.19"
2024-05-28_16-39-56.436456,"53.84,27.22"
2024-05-28_16-39-56.469049,"49.26,24.72"
2024-05-28_16-39-56.497825,"48.02,72.76"
2024-05-28_16-39-56.530587,"43.99,58.45"
2024-05-28_16-39-56.563361,"56.13,82.81"
2024-05-28_16-39-56.596174,"54.50,62.95"
2024-05-28_16-39-56.628851,"56.66,48.60"
2024-05-28_16-39-56.661564,"53.43,22.74"
2024-05-28_16-39-56.694262,"55.45,25.70"
2024-05-28_16-39-56.723209,"52.02,21.82"
2024-05-28_16-39-56.755986,"51.50,29.48"
2024-05-28_16-39-56.788688,"52.65,21.86"
2024-05-28_16-39-56.821413,"45.36,31.18"
2024-05-28_16-39-56.854295,"46.12,75.05"
2024-05-28_16-39-56.886971,"45.25,58.54"
2024-05-28_16-39-56.919558,"55.01,78.09"
2024-05-28_16-39-56.948647,"55.41,61.82"
2024-05-28_16-39-56.981149,"53.03,65.14"
2024-05-28_16-39-57.013894,"55.07,22.17"
2024-05-28_16-39-57.046691,"52.69,22.96"
2024-05-28_16-39-57.079485,"58.30,29.67"
2024-05-28_16-39-57.112184,"51.13,32.06"
2024-05-28_16-39-57.144779,"46.28,27.37"
2024-05-28_16-39-57.173623,"43.98,24.16"
2024-05-28_16-39-57.206464,"51.41,63.65"
2024-05-28_16-39-57.239243,"57.46,53.62"
2024-05-28_16-39-57.272101,"43.68,93.23"
2024-05-28_16-39-57.304817,"66.74,56.91"
2024-05-28_16-39-57.337431,"52.91,51.83"
2024-05-28_16-39-57.370088,"53.52,20.26"
2024-05-28_16-39-57.399170,"45.78,48.82"
2024-05-28_16-39-57.434847,"56.90,50.44"
2024-05-28_16-39-57.542007,"49.36,50.92"
2024-05-28_16-39-57.542302,"46.96,26.57"
2024-05-28_16-39-57.571446,"49.12,26.56"
2024-05-28_16-39-57.572284,"56.91,49.47"
2024-05-28_16-39-57.667150,"42.14,53.43"
2024-05-28_16-39-57.667661,"47.57,86.01"
2024-05-28_16-39-57.667801,"54.39,76.91"
2024-05-28_16-39-57.694690,"52.72,50.17"
2024-05-28_16-39-57.725619,"55.54,50.15"
2024-05-28_16-39-57.755596,"50.15,20.72"
2024-05-28_16-39-57.788665,"44.91,18.53"
2024-05-28_16-39-57.822543,"44.18,22.64"
2024-05-28_16-39-57.849405,"40.69,24.13"
2024-05-28_16-39-57.882616,"40.16,24.67"
2024-05-28_16-39-57.914999,"40.93,57.82"
2024-05-28_16-39-57.947727,"38.12,47.25"
2024-05-28_16-39-57.980483,"49.10,84.39"
2024-05-28_16-39-58.013105,"45.36,68.25"
2024-05-28_16-39-58.045839,"51.50,15.50"
2024-05-28_16-39-58.074607,"50.77,22.21"
2024-05-28_16-39-58.107395,"49.33,19.85"
2024-05-28_16-39-58.140143,"55.46,24.74"
2024-05-28_16-39-58.172907,"51.16,25.45"
2024-05-28_16-39-58.206080,"48.56,22.83"
2024-05-28_16-39-58.260583,"47.75,24.01"
2024-05-28_16-39-58.275477,"41.14,56.66"
2024-05-28_16-39-58.300382,"35.64,64.17"
2024-05-28_16-39-58.333843,"43.39,87.44"
2024-05-28_16-39-58.365382,"49.31,56.38"
2024-05-28_16-39-58.398267,"41.99,20.26"
2024-05-28_16-39-58.430938,"53.58,46.82"
2024-05-28_16-39-58.463722,"55.80,24.42"
2024-05-28_16-39-58.496423,"45.86,15.37"
2024-05-28_16-39-58.528208,"43.91,20.84"
2024-05-28_16-39-58.591057,"51.31,23.13"
2024-05-28_16-39-58.592957,"43.33,14.95"
2024-05-28_16-39-58.624544,"40.82,56.44"
2024-05-28_16-39-58.779575,"44.25,70.44"
2024-05-28_16-39-58.780434,"42.67,76.03"
2024-05-28_16-39-58.789869,"46.86,68.61"
2024-05-28_16-39-58.793126,"45.54,47.12"
2024-05-28_16-39-58.793693,"50.31,16.34"
2024-05-28_16-39-58.822707,"47.16,16.96"
2024-05-28_16-39-58.848876,"49.60,17.81"
2024-05-28_16-39-58.882275,"46.02,24.75"
2024-05-28_16-39-58.914479,"45.80,24.48"
2024-05-28_16-39-58.946981,"74.87,65.85"
2024-05-28_16-39-58.975730,"70.37,72.26"
2024-05-28_16-39-59.008476,"75.74,58.70"
2024-05-28_16-39-59.108584,"39.38,81.33"
2024-05-28_16-39-59.108812,"52.79,90.66"
2024-05-28_16-39-59.111100,"71.57,74.52"
2024-05-28_16-39-59.141376,"75.17,88.50"
2024-05-28_16-39-59.218486,"66.80,91.23"
2024-05-28_16-39-59.222520,"64.74,83.26"
2024-05-28_16-39-59.239413,"85.73,88.73"
2024-05-28_16-39-59.340513,"65.86,73.84"
2024-05-28_16-39-59.347078,"67.19,87.59"
2024-05-28_16-39-59.352852,"72.27,83.37"
2024-05-28_16-39-59.364836,"57.09,60.43"
2024-05-28_16-39-59.397562,"43.05,80.74"
2024-05-28_16-39-59.430543,"39.40,67.07"
2024-05-28_16-39-59.459064,"92.00,60.81"
2024-05-28_16-39-59.491755,"54.36,35.80"
2024-05-28_16-39-59.524600,"69.76,37.84"
2024-05-28_16-39-59.557294,"73.56,36.03"
2024-05-28_16-39-59.590135,"71.95,32.17"
2024-05-28_16-39-59.622876,"78.79,25.35"
2024-05-28_16-39-59.656627,"73.59,61.89"
2024-05-28_16-39-59.728466,"62.10,19.52"
2024-05-28_16-39-59.730800,"71.82,76.90"
2024-05-28_16-39-59.750347,"64.87,79.30"
2024-05-28_16-39-59.783555,"78.61,88.28"
2024-05-28_16-39-59.815361,"66.86,32.66"
2024-05-28_16-39-59.848129,"63.45,26.43"
2024-05-28_16-39-59.880740,"67.92,32.71"
2024-05-28_16-39-59.909495,"64.53,53.11"
2024-05-28_16-39-59.943002,"58.48,46.91"
2024-05-28_16-39-59.975029,"58.75,64.39"
2024-05-28_16-40-00.008065,"68.43,62.15"
2024-05-28_16-40-00.040971,"72.06,74.47"
2024-05-28_16-40-00.073304,"73.94,91.27"
2024-05-28_16-40-00.105943,"62.35,75.30"
2024-05-28_16-40-00.135006,"56.57,74.81"
2024-05-28_16-40-00.167549,"52.15,53.66"
2024-05-28_16-40-00.200314,"58.53,63.19"
2024-05-28_16-40-00.235826,"60.56,59.63"
2024-05-28_16-40-00.266668,"51.57,54.84"
2024-05-28_16-40-00.298540,"63.44,32.43"
2024-05-28_16-40-00.331309,"52.40,30.06"
2024-05-28_16-40-00.359995,"61.26,37.48"
2024-05-28_16-40-00.392955,"49.33,50.06"
2024-05-28_16-40-00.425561,"47.66,77.43"
2024-05-28_16-40-00.458341,"48.64,93.56"
2024-05-28_16-40-00.491913,"44.90,94.79"
2024-05-28_16-40-00.523966,"50.13,68.15"
2024-05-28_16-40-00.556551,"45.82,67.07"
2024-05-28_16-40-00.585230,"38.41,15.96"
2024-05-28_16-40-00.618207,"50.94,55.59"
2024-05-28_16-40-00.656141,"39.17,63.72"
2024-05-28_16-40-00.684877,"37.95,12.19"
2024-05-28_16-40-00.716348,"30.69,8.25"
2024-05-28_16-40-00.749051,"26.01,10.01"
2024-05-28_16-40-00.783477,"21.33,8.96"
2024-05-28_16-40-00.810627,"25.43,9.25"
2024-05-28_16-40-00.843332,"38.02,10.42"
2024-05-28_16-40-00.876108,"64.64,61.84"
2024-05-28_16-40-00.908900,"89.64,46.27"
2024-05-28_16-40-00.941592,"102.45,38.96"
2024-05-28_16-40-00.974340,"101.29,40.89"
2024-05-28_16-40-01.007202,"102.16,81.97"
2024-05-28_16-40-01.035781,"92.72,55.96"
2024-05-28_16-40-01.068593,"103.24,55.57"
2024-05-28_16-40-01.101349,"65.16,54.19"
2024-05-28_16-40-01.134735,"60.36,37.43"
2024-05-28_16-40-01.166877,"69.62,53.53"
2024-05-28_16-40-01.199896,"111.30,41.79"
2024-05-28_16-40-01.232309,"90.99,38.38"
2024-05-28_16-40-01.261077,"96.07,54.33"
2024-05-28_16-40-01.293844,"90.06,57.75"
2024-05-28_16-40-01.326631,"93.36,71.74"
2024-05-28_16-40-01.359362,"100.52,75.75"
2024-05-28_16-40-01.392157,"85.97,53.95"
2024-05-28_16-40-01.424830,"71.39,31.40"
2024-05-28_16-40-01.457632,"54.04,18.99"
2024-05-28_16-40-01.486297,"44.30,25.23"
2024-05-28_16-40-01.519162,"30.23,8.16"
2024-05-28_16-40-01.551955,"28.91,11.35"
2024-05-28_16-40-01.584623,"32.56,13.43"
2024-05-28_16-40-01.617417,"38.85,69.05"
2024-05-28_16-40-01.650118,"33.07,29.45"
2024-05-28_16-40-01.682859,"54.61,61.44"
2024-05-28_16-40-01.711647,"38.30,87.39"
2024-05-28_16-40-01.744345,"55.02,46.50"
2024-05-28_16-40-01.777138,"41.63,21.18"
2024-05-28_16-40-01.810189,"35.71,35.49"
2024-05-28_16-40-01.842685,"66.72,59.53"
2024-05-28_16-40-01.875423,"50.55,12.40"
2024-05-28_16-40-01.908180,"52.74,13.10"
2024-05-28_16-40-01.936854,"50.90,13.58"
2024-05-28_16-40-01.969661,"54.40,11.24"
2024-05-28_16-40-02.002457,"54.63,21.80"
2024-05-28_16-40-02.035352,"47.86,12.31"
2024-05-28_16-40-02.067940,"43.13,46.01"
2024-05-28_16-40-02.100698,"44.15,28.00"
2024-05-28_16-40-02.133350,"46.43,47.02"
2024-05-28_16-40-02.162100,"39.59,45.94"
2024-05-28_16-40-02.194919,"44.39,70.83"
2024-05-28_16-40-02.227712,"39.92,80.84"
2024-05-28_16-40-02.260487,"45.48,81.88"
2024-05-28_16-40-02.293326,"50.36,34.25"
2024-05-28_16-40-02.325975,"56.03,44.56"
2024-05-28_16-40-02.358631,"47.96,14.29"
2024-05-28_16-40-02.387551,"45.08,9.48"
2024-05-28_16-40-02.420429,"41.26,9.14"
2024-05-28_16-40-02.452935,"38.12,6.00"
2024-05-28_16-40-02.485714,"35.99,51.24"
2024-05-28_16-40-02.518538,"38.55,75.93"
2024-05-28_16-40-02.551269,"37.48,72.41"
2024-05-28_16-40-02.584086,"36.09,45.76"
2024-05-28_16-40-02.612729,"38.16,9.31"
2024-05-28_16-40-02.645451,"35.83,10.31"
2024-05-28_16-40-02.678221,"40.10,46.25"
2024-05-28_16-40-02.711057,"42.46,9.87"
2024-05-28_16-40-02.743804,"43.35,64.77"
2024-05-28_16-40-02.776599,"54.75,47.26"
2024-05-28_16-40-02.809303,"82.32,32.04"
2024-05-28_16-40-02.855801,"72.57,36.57"
2024-05-28_16-40-02.870901,"58.61,96.09"
2024-05-28_16-40-02.903785,"30.91,66.71"
2024-05-28_16-40-02.936326,"72.38,59.58"
2024-05-28_16-40-02.969684,"51.40,73.78"
2024-05-28_16-40-03.001779,"40.19,77.35"
2024-05-28_16-40-03.034515,"50.69,96.31"
2024-05-28_16-40-03.067149,"69.41,89.06"
2024-05-28_16-40-03.095992,"69.88,86.45"
2024-05-28_16-40-03.128847,"52.69,86.00"
2024-05-28_16-40-03.161523,"77.25,91.70"
2024-05-28_16-40-03.194244,"75.21,97.63"
2024-05-28_16-40-03.227132,"58.14,73.86"
2024-05-28_16-40-03.259799,"38.38,87.73"
2024-05-28_16-40-03.292420,"39.32,89.53"
2024-05-28_16-40-03.321242,"85.76,97.28"
2024-05-28_16-40-03.354305,"69.55,73.15"
2024-05-28_16-40-03.386752,"59.99,74.03"
2024-05-28_16-40-03.419546,"40.54,74.82"
2024-05-28_16-40-03.452334,"38.15,77.56"
2024-05-28_16-40-03.485081,"31.00,75.25"
2024-05-28_16-40-03.517723,"24.67,72.97"
2024-05-28_16-40-03.546510,"52.88,48.38"
2024-05-28_16-40-03.579288,"86.84,26.10"
2024-05-28_16-40-03.612231,"84.37,26.10"
2024-05-28_16-40-03.644783,"80.51,22.12"
2024-05-28_16-40-03.677752,"29.30,75.64"
2024-05-28_16-40-03.710266,"29.30,86.46"
2024-05-28_16-40-03.742904,"33.75,75.35"
2024-05-28_16-40-03.771824,"29.44,75.46"
2024-05-28_16-40-03.804546,"25.20,93.82"
2024-05-28_16-40-03.837643,"23.12,63.01"
2024-05-28_16-40-03.870063,"86.33,28.37"
2024-05-28_16-40-03.902868,"81.93,20.53"
2024-05-28_16-40-03.935556,"31.15,78.34"
2024-05-28_16-40-03.968254,"29.75,75.39"
2024-05-28_16-40-03.997032,"29.30,86.33"
2024-05-28_16-40-04.029827,"89.87,74.71"
2024-05-28_16-40-04.062584,"82.26,75.70"
2024-05-28_16-40-04.095306,"73.57,14.48"
2024-05-28_16-40-04.128196,"68.35,93.09"
2024-05-28_16-40-04.160805,"77.65,86.65"
2024-05-28_16-40-04.193562,"75.79,74.99"
2024-05-28_16-40-04.222314,"63.62,20.22"
2024-05-28_16-40-04.255115,"75.09,11.72"
2024-05-28_16-40-04.287929,"29.45,86.46"
2024-05-28_16-40-04.320658,"34.00,75.18"
2024-05-28_16-40-04.353390,"29.30,75.29"
2024-05-28_16-40-04.386116,"68.01,74.83"
2024-05-28_16-40-04.418792,"95.12,74.77"
2024-05-28_16-40-04.447591,"90.88,86.49"
2024-05-28_16-40-04.480298,"80.45,82.03"
2024-05-28_16-40-04.513159,"94.71,65.44"
2024-05-28_16-40-04.545882,"86.10,74.91"
2024-05-28_16-40-04.578624,"64.16,62.67"
2024-05-28_16-40-04.611308,"73.59,8.20"
2024-05-28_16-40-04.644067,"59.47,62.05"
2024-05-28_16-40-04.672807,"29.30,76.00"
2024-05-28_16-40-04.705591,"29.30,75.18"
2024-05-28_16-40-04.739000,"83.52,86.06"
2024-05-28_16-40-04.771454,"72.09,44.00"
2024-05-28_16-40-04.804018,"58.30,5.00"
2024-05-28_16-40-04.839968,"44.64,64.90"
2024-05-28_16-40-04.889393,"18.76,88.75"
2024-05-28_16-40-05.006656,"30.18,81.11"
2024-05-28_16-40-05.012279,"43.29,23.23"
2024-05-28_16-40-05.016385,"41.24,23.13"
2024-05-28_16-40-05.016588,"40.83,23.28"
2024-05-28_16-40-05.030782,"39.52,21.59"
2024-05-28_16-40-05.062331,"44.22,23.25"
2024-05-28_16-40-05.094697,"44.96,23.96"
2024-05-28_16-40-05.123473,"40.48,20.41"
2024-05-28_16-40-05.162792,"41.70,41.28"
2024-05-28_16-40-05.227357,"48.90,93.38"
2024-05-28_16-40-05.229912,"58.59,64.15"
2024-05-28_16-40-05.262098,"50.99,27.06"
2024-05-28_16-40-05.287542,"48.73,23.28"
2024-05-28_16-40-05.320567,"45.14,23.55"
2024-05-28_16-40-05.348790,"34.83,20.49"
2024-05-28_16-40-05.381538,"27.01,19.75"
2024-05-28_16-40-05.414777,"28.90,19.08"
2024-05-28_16-40-05.452908,"25.58,16.47"
2024-05-28_16-40-05.481015,"32.91,18.05"
2024-05-28_16-40-05.512582,"33.61,84.62"
2024-05-28_16-40-05.545140,"39.69,82.98"
2024-05-28_16-40-05.577832,"46.31,36.67"
2024-05-28_16-40-05.606867,"53.15,22.83"
2024-05-28_16-40-05.639508,"45.33,25.01"
2024-05-28_16-40-05.672242,"48.00,24.28"
2024-05-28_16-40-05.705081,"40.54,22.29"
2024-05-28_16-40-05.737822,"37.89,22.07"
2024-05-28_16-40-05.771105,"36.47,19.78"
2024-05-28_16-40-05.803485,"37.16,21.48"
2024-05-28_16-40-05.832620,"34.70,21.78"
2024-05-28_16-40-05.864952,"32.90,21.97"
2024-05-28_16-40-05.898151,"38.62,82.28"
2024-05-28_16-40-05.930609,"45.45,92.65"
2024-05-28_16-40-05.963133,"50.27,23.86"
2024-05-28_16-40-05.997302,"46.79,25.43"
2024-05-28_16-40-06.028623,"45.53,21.72"
2024-05-28_16-40-06.057718,"42.86,22.74"
2024-05-28_16-40-06.090359,"38.60,21.58"
2024-05-28_16-40-06.122824,"31.03,22.21"
2024-05-28_16-40-06.155723,"35.06,20.98"
2024-05-28_16-40-06.188461,"30.30,18.35"
2024-05-28_16-40-06.226430,"33.94,63.69"
2024-05-28_16-40-06.254499,"36.08,71.44"
2024-05-28_16-40-06.283409,"43.16,78.32"
2024-05-28_16-40-06.316278,"45.50,47.39"
2024-05-28_16-40-06.348462,"50.26,22.26"
2024-05-28_16-40-06.380855,"42.03,24.01"
2024-05-28_16-40-06.413659,"43.40,23.33"
2024-05-28_16-40-06.446741,"35.50,21.35"
2024-05-28_16-40-06.478929,"32.73,21.29"
2024-05-28_16-40-06.507988,"31.53,18.64"
2024-05-28_16-40-06.541293,"30.11,20.11"
2024-05-28_16-40-06.573546,"29.64,19.77"
2024-05-28_16-40-06.606282,"29.71,70.76"
2024-05-28_16-40-06.639321,"35.31,86.08"
2024-05-28_16-40-06.671836,"45.13,71.86"
2024-05-28_16-40-06.704398,"43.99,22.53"
2024-05-28_16-40-06.733352,"39.81,23.84"
2024-05-28_16-40-06.765855,"37.74,20.13"
2024-05-28_16-40-06.798708,"34.69,20.98"
2024-05-28_16-40-06.831309,"29.20,20.17"
2024-05-28_16-40-06.864058,"23.78,49.19"
2024-05-28_16-40-06.896729,"23.49,49.57"
2024-05-28_16-40-06.931923,"20.44,17.46"
2024-05-28_16-40-06.958512,"27.10,17.06"
2024-05-28_16-40-06.991099,"30.09,17.98"
2024-05-28_16-40-07.023909,"29.54,16.03"
2024-05-28_16-40-07.056761,"39.21,15.29"
2024-05-28_16-40-07.089604,"38.32,12.43"
2024-05-28_16-40-07.122303,"46.57,14.14"
2024-05-28_16-40-07.154941,"52.30,14.86"
2024-05-28_16-40-07.183875,"47.39,45.52"
2024-05-28_16-40-07.216378,"59.39,75.86"
2024-05-28_16-40-07.249097,"59.25,75.11"
2024-05-28_16-40-07.283138,"32.61,73.97"
2024-05-28_16-40-07.314789,"30.76,67.06"
2024-05-28_16-40-07.349573,"63.64,68.13"
2024-05-28_16-40-07.380622,"50.25,78.96"
2024-05-28_16-40-07.423675,"89.89,22.02"
2024-05-28_16-40-07.457042,"30.85,76.89"
2024-05-28_16-40-07.474664,"33.74,73.50"
2024-05-28_16-40-07.507288,"26.10,76.86"
2024-05-28_16-40-07.540575,"25.56,81.34"
2024-05-28_16-40-07.572834,"73.52,39.87"
2024-05-28_16-40-07.605827,"84.44,26.10"
2024-05-28_16-40-07.636134,"84.30,26.72"
2024-05-28_16-40-07.666939,"85.80,19.64"
2024-05-28_16-40-07.700110,"32.81,72.37"
2024-05-28_16-40-07.732826,"71.75,27.93"
2024-05-28_16-40-07.768488,"84.69,26.10"
2024-05-28_16-40-07.798257,"93.92,10.98"
2024-05-28_16-40-07.831889,"72.24,30.88"
2024-05-28_16-40-07.859983,"86.47,26.10"
2024-05-28_16-40-07.892666,"84.17,27.93"
2024-05-28_16-40-07.925332,"25.77,56.13"
2024-05-28_16-40-07.958120,"31.56,97.28"
2024-05-28_16-40-07.990711,"47.58,81.71"
2024-05-28_16-40-08.025738,"26.21,76.33"
2024-05-28_16-40-08.056080,"29.44,75.67"
2024-05-28_16-40-08.084704,"29.59,75.89"
2024-05-28_16-40-08.117384,"29.44,76.12"
2024-05-28_16-40-08.150472,"77.42,57.52"
2024-05-28_16-40-08.183429,"97.56,70.81"
2024-05-28_16-40-08.216177,"69.32,48.92"
2024-05-28_16-40-08.248963,"87.25,72.99"
2024-05-28_16-40-08.281613,"94.04,30.19"
2024-05-28_16-40-08.313913,"83.62,35.28"
2024-05-28_16-40-08.342740,"85.34,49.34"
2024-05-28_16-40-08.375559,"68.99,36.22"
2024-05-28_16-40-08.408403,"83.97,51.80"
2024-05-28_16-40-08.440961,"73.02,66.68"
2024-05-28_16-40-08.473797,"83.50,55.84"
2024-05-28_16-40-08.507099,"78.37,64.60"
2024-05-28_16-40-08.535219,"66.12,61.50"
2024-05-28_16-40-08.567912,"90.52,51.15"
2024-05-28_16-40-08.600771,"73.87,9.63"
2024-05-28_16-40-08.633939,"77.82,46.12"
2024-05-28_16-40-08.666365,"97.72,12.19"
2024-05-28_16-40-08.699209,"65.26,69.10"
2024-05-28_16-40-08.732648,"77.16,28.42"
2024-05-28_16-40-08.764502,"59.73,52.53"
2024-05-28_16-40-08.793633,"92.42,74.92"
2024-05-28_16-40-08.826058,"60.96,58.78"
2024-05-28_16-40-08.860156,"77.27,47.58"
2024-05-28_16-40-08.891579,"67.96,71.67"
2024-05-28_16-40-08.924313,"85.51,75.72"
2024-05-28_16-40-08.957419,"77.76,75.43"
2024-05-28_16-40-08.989883,"59.52,67.99"
2024-05-28_16-40-09.018709,"53.11,74.83"
