timestamp,EMG
2024-05-28_13-19-17.690520,"84.68,74.06"
2024-05-28_13-19-17.723206,"81.58,85.58"
2024-05-28_13-19-17.751993,"86.03,86.42"
2024-05-28_13-19-17.784768,"82.42,70.64"
2024-05-28_13-19-17.817558,"86.74,74.71"
2024-05-28_13-19-17.850326,"77.05,79.53"
2024-05-28_13-19-17.883074,"75.77,72.00"
2024-05-28_13-19-17.915812,"86.19,81.40"
2024-05-28_13-19-17.948507,"76.94,81.09"
2024-05-28_13-19-17.977378,"87.24,68.98"
2024-05-28_13-19-18.010123,"99.04,73.62"
2024-05-28_13-19-18.042932,"75.66,67.81"
2024-05-28_13-19-18.075648,"93.88,83.15"
2024-05-28_13-19-18.108363,"83.46,81.99"
2024-05-28_13-19-18.141104,"81.54,86.60"
2024-05-28_13-19-18.173810,"84.90,80.48"
2024-05-28_13-19-18.202579,"81.19,83.48"
2024-05-28_13-19-18.235342,"83.98,70.85"
2024-05-28_13-19-18.268122,"87.50,80.12"
2024-05-28_13-19-18.300936,"84.90,72.55"
2024-05-28_13-19-18.333764,"92.55,63.95"
2024-05-28_13-19-18.366561,"109.32,77.51"
2024-05-28_13-19-18.399113,"71.42,77.99"
2024-05-28_13-19-18.427858,"90.74,78.38"
2024-05-28_13-19-18.460583,"75.46,85.14"
2024-05-28_13-19-18.493420,"92.35,75.74"
2024-05-28_13-19-18.526228,"85.06,79.17"
2024-05-28_13-19-18.558986,"79.23,72.28"
2024-05-28_13-19-18.591725,"73.26,79.68"
2024-05-28_13-19-18.624399,"83.07,70.85"
2024-05-28_13-19-18.653139,"88.32,82.51"
2024-05-28_13-19-18.685983,"88.98,68.69"
2024-05-28_13-19-18.718675,"93.98,52.41"
2024-05-28_13-19-18.751472,"66.89,80.11"
2024-05-28_13-19-18.784228,"89.24,90.31"
2024-05-28_13-19-18.817011,"98.66,80.65"
2024-05-28_13-19-18.849686,"72.07,85.13"
2024-05-28_13-19-18.878441,"80.53,74.59"
2024-05-28_13-19-18.911215,"90.37,75.28"
2024-05-28_13-19-18.944030,"80.43,83.66"
2024-05-28_13-19-18.976769,"78.93,70.66"
2024-05-28_13-19-19.009561,"90.47,81.15"
2024-05-28_13-19-19.042279,"84.16,72.15"
2024-05-28_13-19-19.075013,"102.50,45.61"
2024-05-28_13-19-19.103725,"76.28,78.81"
2024-05-28_13-19-19.136462,"74.39,77.29"
2024-05-28_13-19-19.169221,"95.57,81.92"
2024-05-28_13-19-19.202074,"92.93,71.54"
2024-05-28_13-19-19.234933,"84.69,84.29"
2024-05-28_13-19-19.267694,"84.16,84.04"
2024-05-28_13-19-19.300243,"88.69,56.42"
2024-05-28_13-19-19.332946,"80.86,80.48"
2024-05-28_13-19-19.361757,"82.89,71.15"
2024-05-28_13-19-19.394611,"88.33,70.02"
2024-05-28_13-19-19.427324,"105.78,53.37"
2024-05-28_13-19-19.460125,"62.96,78.93"
2024-05-28_13-19-19.492861,"77.23,78.44"
2024-05-28_13-19-19.525557,"97.51,92.69"
2024-05-28_13-19-19.558251,"83.65,79.46"
2024-05-28_13-19-19.587045,"75.72,78.24"
2024-05-28_13-19-19.619896,"75.99,72.16"
2024-05-28_13-19-19.652678,"83.31,76.25"
2024-05-28_13-19-19.685558,"92.40,82.91"
2024-05-28_13-19-19.718210,"76.74,70.29"
2024-05-28_13-19-19.758794,"87.64,67.95"
2024-05-28_13-19-19.814568,"90.53,63.66"
2024-05-28_13-19-19.818184,"70.59,93.60"
2024-05-28_13-19-19.845227,"89.44,69.31"
2024-05-28_13-19-19.877932,"82.12,64.73"
2024-05-28_13-19-19.910696,"83.18,97.35"
2024-05-28_13-19-19.943452,"81.80,77.27"
2024-05-28_13-19-19.976138,"82.77,82.77"
2024-05-28_13-19-20.008849,"87.31,79.22"
2024-05-28_13-19-20.037767,"82.81,68.17"
2024-05-28_13-19-20.070470,"82.65,80.96"
2024-05-28_13-19-20.103279,"85.62,71.16"
2024-05-28_13-19-20.136028,"100.82,55.33"
2024-05-28_13-19-20.169467,"77.45,83.97"
2024-05-28_13-19-20.201773,"66.47,55.45"
2024-05-28_13-19-20.234106,"80.55,68.81"
2024-05-28_13-19-20.262952,"85.89,89.70"
2024-05-28_13-19-20.295810,"72.95,76.55"
2024-05-28_13-19-20.328456,"81.09,80.64"
2024-05-28_13-19-20.361259,"79.20,70.97"
2024-05-28_13-19-20.394087,"87.09,55.56"
2024-05-28_13-19-20.426717,"102.87,64.28"
2024-05-28_13-19-20.459419,"88.06,55.22"
2024-05-28_13-19-20.488267,"93.94,51.91"
2024-05-28_13-19-20.521003,"70.61,74.01"
2024-05-28_13-19-20.553724,"84.85,80.06"
2024-05-28_13-19-20.586492,"91.04,86.82"
2024-05-28_13-19-20.619257,"84.77,81.96"
2024-05-28_13-19-20.652185,"103.12,82.69"
2024-05-28_13-19-20.696668,"73.94,78.53"
2024-05-28_13-19-20.728238,"94.97,64.76"
2024-05-28_13-19-20.746430,"100.65,61.68"
2024-05-28_13-19-20.779209,"81.45,62.69"
2024-05-28_13-19-20.811822,"96.86,59.39"
2024-05-28_13-19-20.844613,"99.99,57.43"
2024-05-28_13-19-20.877300,"71.07,78.28"
2024-05-28_13-19-20.909970,"77.02,91.58"
2024-05-28_13-19-20.938794,"84.81,84.48"
2024-05-28_13-19-20.971585,"91.07,73.92"
2024-05-28_13-19-21.004436,"103.68,89.96"
2024-05-28_13-19-21.037130,"73.74,72.51"
2024-05-28_13-19-21.069811,"89.03,79.26"
2024-05-28_13-19-21.102579,"82.87,71.17"
2024-05-28_13-19-21.135288,"82.26,78.32"
2024-05-28_13-19-21.164122,"88.60,73.87"
2024-05-28_13-19-21.196883,"87.43,54.71"
2024-05-28_13-19-21.229591,"71.11,79.85"
2024-05-28_13-19-21.262352,"90.57,84.86"
2024-05-28_13-19-21.295132,"94.52,81.94"
2024-05-28_13-19-21.327843,"79.67,83.29"
2024-05-28_13-19-21.360574,"71.37,72.97"
2024-05-28_13-19-21.389333,"78.96,78.20"
2024-05-28_13-19-21.422237,"81.97,72.17"
2024-05-28_13-19-21.454893,"87.36,82.97"
2024-05-28_13-19-21.487652,"95.68,69.55"
2024-05-28_13-19-21.520395,"92.68,51.88"
2024-05-28_13-19-21.553144,"95.97,51.77"
2024-05-28_13-19-21.585847,"63.92,79.19"
2024-05-28_13-19-21.614606,"92.11,78.60"
2024-05-28_13-19-21.647392,"94.98,83.34"
2024-05-28_13-19-21.680156,"74.29,66.00"
2024-05-28_13-19-21.712987,"99.98,79.09"
2024-05-28_13-19-21.745666,"86.27,84.36"
2024-05-28_13-19-21.778465,"68.74,69.89"
2024-05-28_13-19-21.811157,"88.60,80.47"
2024-05-28_13-19-21.839889,"85.83,72.00"
2024-05-28_13-19-21.872670,"86.23,63.44"
2024-05-28_13-19-21.905445,"88.07,81.47"
2024-05-28_13-19-21.938336,"53.22,80.63"
2024-05-28_13-19-21.971117,"94.10,91.86"
2024-05-28_13-19-22.003789,"88.49,69.58"
2024-05-28_13-19-22.036437,"80.98,85.04"
2024-05-28_13-19-22.069139,"81.65,76.47"
2024-05-28_13-19-22.097939,"77.86,68.16"
2024-05-28_13-19-22.130675,"81.12,79.84"
2024-05-28_13-19-22.163437,"83.64,71.23"
2024-05-28_13-19-22.196246,"87.35,83.02"
2024-05-28_13-19-22.229067,"104.37,51.81"
2024-05-28_13-19-22.261743,"63.13,77.83"
2024-05-28_13-19-22.294443,"78.79,89.27"
2024-05-28_13-19-22.323215,"89.23,89.28"
2024-05-28_13-19-22.356024,"72.53,68.24"
2024-05-28_13-19-22.388768,"87.90,81.70"
2024-05-28_13-19-22.421527,"77.36,72.63"
2024-05-28_13-19-22.454275,"85.34,76.33"
2024-05-28_13-19-22.487005,"81.48,83.31"
2024-05-28_13-19-22.519718,"76.15,70.07"
2024-05-28_13-19-22.548551,"88.73,68.04"
2024-05-28_13-19-22.581325,"99.70,56.79"
2024-05-28_13-19-22.614062,"70.19,52.91"
2024-05-28_13-19-22.646852,"88.31,91.84"
2024-05-28_13-19-22.679573,"89.26,81.93"
2024-05-28_13-19-22.712313,"71.20,71.43"
2024-05-28_13-19-22.745053,"74.69,74.92"
2024-05-28_13-19-22.773837,"88.22,81.86"
2024-05-28_13-19-22.806724,"82.09,79.30"
2024-05-28_13-19-22.839435,"87.31,69.80"
2024-05-28_13-19-22.872118,"82.77,52.86"
2024-05-28_13-19-22.904872,"82.24,72.10"
2024-05-28_13-19-22.937621,"93.20,54.34"
2024-05-28_13-19-22.970290,"65.37,88.53"
2024-05-28_13-19-22.999118,"83.87,75.75"
2024-05-28_13-19-23.032042,"95.47,79.42"
2024-05-28_13-19-23.064750,"90.39,82.92"
2024-05-28_13-19-23.097489,"88.80,76.45"
2024-05-28_13-19-23.130187,"83.42,79.17"
2024-05-28_13-19-23.162913,"84.17,71.45"
2024-05-28_13-19-23.195625,"81.98,76.74"
2024-05-28_13-19-23.224402,"94.86,85.13"
2024-05-28_13-19-23.257156,"83.43,54.24"
2024-05-28_13-19-23.289970,"90.11,77.42"
2024-05-28_13-19-23.322719,"70.09,69.33"
2024-05-28_13-19-23.355463,"96.80,79.58"
2024-05-28_13-19-23.388257,"99.50,93.56"
2024-05-28_13-19-23.420891,"89.15,81.30"
2024-05-28_13-19-23.449672,"72.80,80.27"
2024-05-28_13-19-23.482413,"85.15,71.69"
2024-05-28_13-19-23.515439,"86.85,81.83"
2024-05-28_13-19-23.548020,"95.22,70.48"
2024-05-28_13-19-23.580754,"98.01,50.63"
2024-05-28_13-19-23.613542,"98.08,52.74"
2024-05-28_13-19-23.646535,"71.57,70.97"
2024-05-28_13-19-23.675129,"77.87,80.19"
2024-05-28_13-19-23.707751,"77.78,76.15"
2024-05-28_13-19-23.740580,"90.47,74.97"
2024-05-28_13-19-23.775733,"84.38,82.16"
2024-05-28_13-19-23.806121,"88.78,87.64"
2024-05-28_13-19-23.838892,"86.32,63.68"
2024-05-28_13-19-23.871458,"107.92,65.84"
2024-05-28_13-19-23.900284,"83.71,72.24"
2024-05-28_13-19-23.933294,"89.88,62.81"
2024-05-28_13-19-23.965999,"88.54,55.68"
2024-05-28_13-19-23.998586,"86.85,87.48"
2024-05-28_13-19-24.031504,"94.43,78.74"
2024-05-28_13-19-24.064144,"90.07,79.19"
2024-05-28_13-19-24.096768,"87.86,87.79"
2024-05-28_13-19-24.125743,"88.25,78.95"
2024-05-28_13-19-24.158382,"84.58,69.57"
2024-05-28_13-19-24.191082,"76.48,80.36"
2024-05-28_13-19-24.223826,"85.62,71.97"
2024-05-28_13-19-24.256603,"88.85,82.20"
2024-05-28_13-19-24.289364,"100.20,52.99"
2024-05-28_13-19-24.322047,"76.44,54.21"
2024-05-28_13-19-24.354755,"69.43,72.23"
2024-05-28_13-19-24.383581,"98.41,84.85"
2024-05-28_13-19-24.416382,"93.54,84.16"
2024-05-28_13-19-24.449074,"85.26,79.85"
2024-05-28_13-19-24.481854,"77.68,72.11"
2024-05-28_13-19-24.514662,"75.01,76.02"
2024-05-28_13-19-24.547337,"92.72,83.40"
2024-05-28_13-19-24.580046,"76.41,70.28"
2024-05-28_13-19-24.608865,"87.04,68.11"
2024-05-28_13-19-24.641613,"90.92,64.12"
2024-05-28_13-19-24.674389,"63.28,90.41"
2024-05-28_13-19-24.707162,"95.66,90.00"
2024-05-28_13-19-24.739962,"96.62,65.33"
2024-05-28_13-19-24.772655,"75.88,81.50"
2024-05-28_13-19-24.805315,"82.07,73.04"
2024-05-28_13-19-24.834133,"81.03,81.34"
2024-05-28_13-19-24.866926,"86.09,79.82"
2024-05-28_13-19-24.899664,"84.02,68.37"
2024-05-28_13-19-24.932427,"81.64,67.86"
2024-05-28_13-19-24.965175,"95.32,56.13"
2024-05-28_13-19-24.997942,"75.60,56.18"
2024-05-28_13-19-25.030651,"70.87,85.62"
2024-05-28_13-19-25.059428,"89.32,80.66"
2024-05-28_13-19-25.092278,"90.60,73.42"
2024-05-28_13-19-25.125035,"109.44,91.86"
2024-05-28_13-19-25.157798,"84.18,73.99"
2024-05-28_13-19-25.190561,"88.99,80.88"
2024-05-28_13-19-25.223319,"98.39,63.82"
2024-05-28_13-19-25.256013,"75.83,69.85"
2024-05-28_13-19-25.284781,"109.75,73.51"
2024-05-28_13-19-25.317523,"82.28,56.89"
2024-05-28_13-19-25.350261,"71.23,81.20"
2024-05-28_13-19-25.382980,"94.23,73.24"
2024-05-28_13-19-25.415759,"95.22,79.37"
2024-05-28_13-19-25.448530,"84.00,80.36"
2024-05-28_13-19-25.481212,"76.81,70.87"
2024-05-28_13-19-25.509968,"83.79,77.87"
2024-05-28_13-19-25.542823,"77.29,71.60"
2024-05-28_13-19-25.575533,"90.77,70.58"
2024-05-28_13-19-25.608330,"88.72,69.29"
2024-05-28_13-19-25.641034,"93.52,52.29"
2024-05-28_13-19-25.673799,"77.74,75.98"
2024-05-28_13-19-25.706548,"73.60,91.19"
2024-05-28_13-19-25.735285,"94.65,89.67"
2024-05-28_13-19-25.768089,"92.48,74.29"
2024-05-28_13-19-25.801100,"76.70,74.97"
2024-05-28_13-19-25.833619,"103.65,81.51"
2024-05-28_13-19-25.866383,"81.84,84.04"
2024-05-28_13-19-25.899087,"75.20,69.63"
2024-05-28_13-19-25.931792,"83.50,71.29"
2024-05-28_13-19-25.960593,"82.65,58.67"
2024-05-28_13-19-25.993324,"83.54,54.00"
2024-05-28_13-19-26.026446,"64.88,98.62"
2024-05-28_13-19-26.058930,"88.62,78.33"
2024-05-28_13-19-26.091656,"87.56,92.24"
2024-05-28_13-19-26.124404,"72.99,82.04"
2024-05-28_13-19-26.157082,"94.27,82.87"
2024-05-28_13-19-26.185816,"86.77,77.78"
2024-05-28_13-19-26.218604,"77.63,67.70"
2024-05-28_13-19-26.251433,"82.45,80.26"
2024-05-28_13-19-26.284127,"84.89,72.50"
2024-05-28_13-19-26.316941,"85.53,69.62"
2024-05-28_13-19-26.349705,"85.57,69.47"
2024-05-28_13-19-26.382367,"76.89,78.82"
2024-05-28_13-19-26.415378,"94.46,100.30"
2024-05-28_13-19-26.443897,"99.22,76.66"
2024-05-28_13-19-26.476734,"84.60,77.80"
2024-05-28_13-19-26.509461,"89.31,80.61"
2024-05-28_13-19-26.542208,"77.05,71.93"
2024-05-28_13-19-26.575388,"81.87,77.07"
2024-05-28_13-19-26.607669,"92.39,88.15"
2024-05-28_13-19-26.640372,"88.67,62.36"
2024-05-28_13-19-26.669941,"104.27,53.30"
2024-05-28_13-19-26.702008,"70.99,92.23"
2024-05-28_13-19-26.734698,"90.74,83.16"
2024-05-28_13-19-26.767533,"88.10,95.30"
2024-05-28_13-19-26.800316,"89.03,64.99"
2024-05-28_13-19-26.832948,"86.13,77.33"
2024-05-28_13-19-26.865653,"83.67,71.98"
2024-05-28_13-19-26.894436,"70.51,80.50"
2024-05-28_13-19-26.927405,"89.56,80.01"
2024-05-28_13-19-26.960032,"82.28,53.75"
2024-05-28_13-19-26.992752,"94.94,54.79"
2024-05-28_13-19-27.025536,"79.90,55.22"
2024-05-28_13-19-27.058259,"79.50,82.12"
2024-05-28_13-19-27.090970,"95.74,82.01"
2024-05-28_13-19-27.119849,"81.80,89.19"
2024-05-28_13-19-27.152669,"92.77,80.17"
2024-05-28_13-19-27.185365,"71.33,89.12"
2024-05-28_13-19-27.218165,"82.53,71.10"
2024-05-28_13-19-27.250902,"87.27,80.85"
2024-05-28_13-19-27.283522,"84.97,71.38"
2024-05-28_13-19-27.316427,"80.48,64.27"
2024-05-28_13-19-27.345213,"69.04,81.28"
2024-05-28_13-19-27.377921,"71.14,79.58"
2024-05-28_13-19-27.410769,"88.51,79.29"
2024-05-28_13-19-27.443429,"99.47,88.99"
2024-05-28_13-19-27.476135,"79.99,88.91"
2024-05-28_13-19-27.508805,"74.93,80.93"
2024-05-28_13-19-27.541504,"84.51,69.92"
2024-05-28_13-19-27.570494,"78.10,78.32"
2024-05-28_13-19-27.603083,"70.38,71.16"
2024-05-28_13-19-27.635871,"89.69,82.09"
2024-05-28_13-19-27.668598,"103.55,52.14"
2024-05-28_13-19-27.701382,"79.10,55.13"
2024-05-28_13-19-27.734185,"66.07,92.10"
2024-05-28_13-19-27.766824,"99.21,88.23"
2024-05-28_13-19-27.795683,"92.40,83.51"
2024-05-28_13-19-27.828422,"94.13,81.54"
2024-05-28_13-19-27.861180,"74.04,73.19"
2024-05-28_13-19-27.893950,"83.07,76.79"
2024-05-28_13-19-27.926723,"92.68,83.86"
2024-05-28_13-19-27.959426,"77.21,70.34"
2024-05-28_13-19-27.992120,"88.15,52.02"
2024-05-28_13-19-28.020901,"93.20,56.45"
2024-05-28_13-19-28.053782,"69.34,67.65"
2024-05-28_13-19-28.086651,"90.31,100.87"
2024-05-28_13-19-28.119160,"83.23,65.28"
2024-05-28_13-19-28.151986,"75.59,82.36"
2024-05-28_13-19-28.184674,"79.23,75.61"
2024-05-28_13-19-28.217386,"92.81,82.11"
2024-05-28_13-19-28.247105,"83.64,79.91"
2024-05-28_13-19-28.279055,"77.20,66.27"
2024-05-28_13-19-28.311992,"92.29,67.41"
2024-05-28_13-19-28.344551,"104.13,74.09"
2024-05-28_13-19-28.377709,"70.77,59.07"
2024-05-28_13-19-28.409991,"72.19,83.66"
2024-05-28_13-19-28.442682,"85.29,84.05"
2024-05-28_13-19-28.471503,"82.77,71.27"
2024-05-28_13-19-28.504300,"85.46,86.76"
2024-05-28_13-19-28.539114,"76.25,72.92"
2024-05-28_13-19-28.569841,"96.53,65.83"
2024-05-28_13-19-28.602590,"85.14,59.04"
2024-05-28_13-19-28.635353,"82.54,79.68"
2024-05-28_13-19-28.667998,"107.00,55.79"
2024-05-28_13-19-28.696793,"76.06,55.70"
2024-05-28_13-19-28.729537,"73.13,75.75"
2024-05-28_13-19-28.762331,"95.73,82.74"
2024-05-28_13-19-28.795089,"95.04,99.43"
2024-05-28_13-19-28.828150,"95.64,81.94"
2024-05-28_13-19-28.860737,"69.01,72.37"
2024-05-28_13-19-28.893256,"89.23,83.36"
2024-05-28_13-19-28.925960,"82.44,71.46"
2024-05-28_13-19-28.954777,"87.78,81.48"
2024-05-28_13-19-28.987539,"86.39,68.73"
2024-05-28_13-19-29.020328,"94.29,53.88"
2024-05-28_13-19-29.053100,"69.85,55.07"
2024-05-28_13-19-29.085869,"89.08,90.06"
2024-05-28_13-19-29.118545,"84.16,64.51"
2024-05-28_13-19-29.151298,"79.94,80.05"
2024-05-28_13-19-29.180098,"85.07,72.85"
2024-05-28_13-19-29.212853,"82.04,75.69"
2024-05-28_13-19-29.245619,"89.45,84.09"
2024-05-28_13-19-29.278397,"75.11,69.16"
2024-05-28_13-19-29.311123,"88.48,82.09"
2024-05-28_13-19-29.343854,"92.92,55.38"
2024-05-28_13-19-29.376635,"76.82,54.68"
2024-05-28_13-19-29.405410,"87.12,92.47"
2024-05-28_13-19-29.438141,"94.93,80.62"
2024-05-28_13-19-29.470843,"82.75,72.39"
2024-05-28_13-19-29.503774,"87.42,75.16"
2024-05-28_13-19-29.536453,"84.36,83.63"
2024-05-28_13-19-29.569318,"80.69,79.55"
2024-05-28_13-19-29.602044,"85.63,68.25"
2024-05-28_13-19-29.630615,"76.87,73.24"
2024-05-28_13-19-29.663447,"91.64,68.09"
2024-05-28_13-19-29.696182,"78.52,56.40"
2024-05-28_13-19-29.728919,"70.44,75.32"
2024-05-28_13-19-29.761793,"90.83,74.20"
2024-05-28_13-19-29.794432,"99.08,86.17"
2024-05-28_13-19-29.827154,"101.28,87.37"
2024-05-28_13-19-29.856002,"74.95,72.34"
2024-05-28_13-19-29.889159,"90.23,79.02"
2024-05-28_13-19-29.921545,"86.45,68.86"
2024-05-28_13-19-29.954259,"84.62,58.69"
2024-05-28_13-19-29.986997,"93.01,56.69"
2024-05-28_13-19-30.019784,"84.49,55.40"
2024-05-28_13-19-30.055749,"68.92,85.62"
2024-05-28_13-19-30.083855,"80.80,83.33"
2024-05-28_13-19-30.114017,"91.59,84.30"
2024-05-28_13-19-30.146824,"77.24,106.40"
2024-05-28_13-19-30.179549,"67.60,73.86"
2024-05-28_13-19-30.212300,"81.93,77.84"
2024-05-28_13-19-30.245011,"86.85,70.98"
2024-05-28_13-19-30.277724,"88.17,82.47"
2024-05-28_13-19-30.306503,"87.37,82.05"
2024-05-28_13-19-30.339248,"92.58,51.97"
2024-05-28_13-19-30.372042,"76.89,59.18"
2024-05-28_13-19-30.404844,"85.08,93.32"
2024-05-28_13-19-30.437599,"92.31,86.28"
2024-05-28_13-19-30.470295,"80.94,88.00"
2024-05-28_13-19-30.503021,"77.61,75.98"
2024-05-28_13-19-30.531780,"88.41,75.47"
2024-05-28_13-19-30.564603,"83.10,83.72"
2024-05-28_13-19-30.597382,"77.06,70.57"
2024-05-28_13-19-30.630145,"89.49,81.66"
2024-05-28_13-19-30.663290,"92.11,56.02"
2024-05-28_13-19-30.695599,"78.91,64.44"
2024-05-28_13-19-30.728278,"77.61,82.96"
2024-05-28_13-19-30.757056,"92.65,83.31"
2024-05-28_13-19-30.790608,"84.27,83.38"
2024-05-28_13-19-30.823112,"92.15,82.13"
2024-05-28_13-19-30.855530,"59.99,94.08"
2024-05-28_13-19-30.888161,"92.90,64.28"
2024-05-28_13-19-30.920971,"82.99,68.93"
2024-05-28_13-19-30.953585,"82.28,80.91"
2024-05-28_13-19-30.982370,"94.44,71.82"
2024-05-28_13-19-31.015117,"87.71,54.46"
2024-05-28_13-19-31.047916,"65.52,82.91"
2024-05-28_13-19-31.082634,"82.54,80.30"
2024-05-28_13-19-31.113642,"97.50,76.76"
2024-05-28_13-19-31.146183,"72.06,87.53"
2024-05-28_13-19-31.178867,"67.63,75.94"
2024-05-28_13-19-31.207612,"76.15,76.94"
2024-05-28_13-19-31.240392,"78.97,70.99"
2024-05-28_13-19-31.273185,"81.18,77.92"
2024-05-28_13-19-31.305980,"93.54,72.56"
2024-05-28_13-19-31.338680,"89.82,54.60"
2024-05-28_13-19-31.371779,"73.20,57.12"
2024-05-28_13-19-31.404388,"84.10,85.99"
2024-05-28_13-19-31.433006,"74.55,75.82"
2024-05-28_13-19-31.465686,"91.82,83.88"
2024-05-28_13-19-31.498473,"74.61,72.44"
2024-05-28_13-19-31.531242,"82.74,78.28"
2024-05-28_13-19-31.563984,"78.38,71.29"
2024-05-28_13-19-31.596797,"88.99,82.66"
2024-05-28_13-19-31.629442,"93.55,53.81"
2024-05-28_13-19-31.662158,"98.18,52.46"
2024-05-28_13-19-31.690947,"75.01,54.03"
2024-05-28_13-19-31.723837,"83.54,90.59"
2024-05-28_13-19-31.756564,"85.62,66.76"
2024-05-28_13-19-31.789340,"76.77,93.69"
2024-05-28_13-19-31.822038,"65.54,75.09"
2024-05-28_13-19-31.854762,"81.72,75.46"
2024-05-28_13-19-31.887454,"89.45,83.34"
2024-05-28_13-19-31.916307,"76.41,69.61"
2024-05-28_13-19-31.949199,"88.95,68.61"
2024-05-28_13-19-31.981783,"94.93,56.20"
2024-05-28_13-19-32.014631,"70.49,47.21"
2024-05-28_13-19-32.047374,"92.01,89.68"
2024-05-28_13-19-32.080064,"96.17,65.45"
2024-05-28_13-19-32.112721,"74.65,81.93"
2024-05-28_13-19-32.141537,"79.97,73.33"
2024-05-28_13-19-32.174280,"81.43,81.81"
2024-05-28_13-19-32.207103,"86.59,79.72"
2024-05-28_13-19-32.240003,"83.59,67.96"
2024-05-28_13-19-32.272673,"81.16,82.50"
2024-05-28_13-19-32.305353,"99.89,58.55"
2024-05-28_13-19-32.338060,"70.01,78.37"
2024-05-28_13-19-32.366937,"75.33,88.18"
2024-05-28_13-19-32.399640,"96.63,82.95"
2024-05-28_13-19-32.432364,"87.73,78.27"
2024-05-28_13-19-32.465119,"95.61,84.41"
2024-05-28_13-19-32.497839,"75.78,71.44"
2024-05-28_13-19-32.530631,"80.49,79.76"
2024-05-28_13-19-32.563310,"87.27,73.32"
2024-05-28_13-19-32.592085,"80.58,67.92"
2024-05-28_13-19-32.624920,"108.51,54.94"
2024-05-28_13-19-32.657643,"74.80,56.65"
2024-05-28_13-19-32.690412,"72.91,75.96"
2024-05-28_13-19-32.723224,"97.84,84.96"
2024-05-28_13-19-32.755885,"98.82,88.14"
2024-05-28_13-19-32.788634,"94.86,80.01"
2024-05-28_13-19-32.817426,"79.05,72.42"
2024-05-28_13-19-32.850196,"73.35,79.53"
2024-05-28_13-19-32.883036,"82.62,70.15"
2024-05-28_13-19-32.915714,"89.04,69.93"
2024-05-28_13-19-32.948453,"96.87,52.95"
2024-05-28_13-19-32.981186,"84.99,52.94"
2024-05-28_13-19-33.013911,"62.12,92.32"
2024-05-28_13-19-33.042706,"97.41,90.38"
2024-05-28_13-19-33.075475,"92.54,86.68"
2024-05-28_13-19-33.108165,"90.07,84.58"
2024-05-28_13-19-33.141034,"78.03,73.56"
2024-05-28_13-19-33.173707,"83.90,76.60"
2024-05-28_13-19-33.206465,"92.20,84.66"
2024-05-28_13-19-33.239190,"77.09,70.62"
2024-05-28_13-19-33.267966,"86.74,81.87"
2024-05-28_13-19-33.300714,"90.44,61.47"
2024-05-28_13-19-33.333502,"65.98,94.47"
2024-05-28_13-19-33.366281,"94.00,96.79"
2024-05-28_13-19-33.399069,"83.39,65.66"
2024-05-28_13-19-33.431996,"96.98,86.34"
2024-05-28_13-19-33.464642,"69.02,74.77"
2024-05-28_13-19-33.493292,"91.91,82.10"
2024-05-28_13-19-33.526007,"85.23,80.34"
2024-05-28_13-19-33.558784,"85.29,68.45"
2024-05-28_13-19-33.591538,"80.23,67.66"
2024-05-28_13-19-33.624339,"102.32,56.22"
2024-05-28_13-19-33.657096,"64.42,59.25"
2024-05-28_13-19-33.689767,"91.16,84.52"
2024-05-28_13-19-33.718532,"85.12,77.22"
2024-05-28_13-19-33.751348,"77.87,81.10"
2024-05-28_13-19-33.784077,"87.85,85.38"
2024-05-28_13-19-33.816820,"82.15,71.65"
2024-05-28_13-19-33.849673,"88.35,80.89"
2024-05-28_13-19-33.882390,"84.89,71.55"
2024-05-28_13-19-33.915061,"91.80,63.87"
2024-05-28_13-19-33.947774,"101.67,57.69"
2024-05-28_13-19-33.976581,"53.62,57.96"
2024-05-28_13-19-34.009330,"92.03,94.40"
2024-05-28_13-19-34.042143,"92.83,66.46"
2024-05-28_13-19-34.074915,"80.81,84.31"
2024-05-28_13-19-34.107680,"79.56,78.40"
2024-05-28_13-19-34.140384,"81.85,69.25"
2024-05-28_13-19-34.169115,"79.97,79.31"
2024-05-28_13-19-34.201856,"84.17,71.50"
2024-05-28_13-19-34.234618,"97.34,83.87"
2024-05-28_13-19-34.267405,"94.24,51.97"
2024-05-28_13-19-34.300163,"54.27,66.86"
2024-05-28_13-19-34.332986,"94.93,91.57"
2024-05-28_13-19-34.365621,"91.01,73.95"
2024-05-28_13-19-34.398363,"83.53,77.35"
2024-05-28_13-19-34.427189,"80.78,79.19"
2024-05-28_13-19-34.459921,"80.84,72.54"
2024-05-28_13-19-34.492676,"80.90,76.74"
2024-05-28_13-19-34.525454,"93.32,84.10"
2024-05-28_13-19-34.558218,"86.93,55.04"
2024-05-28_13-19-34.590939,"96.77,51.43"
2024-05-28_13-19-34.623654,"64.17,66.98"
2024-05-28_13-19-34.652424,"94.37,79.33"
2024-05-28_13-19-34.685206,"81.66,72.39"
2024-05-28_13-19-34.717969,"76.50,74.89"
2024-05-28_13-19-34.750740,"77.39,78.83"
2024-05-28_13-19-34.783528,"76.72,71.80"
2024-05-28_13-19-34.816205,"84.54,83.11"
2024-05-28_13-19-34.848924,"89.04,81.84"
2024-05-28_13-19-34.877700,"83.20,50.98"
2024-05-28_13-19-34.910507,"92.17,50.69"
2024-05-28_13-19-34.943260,"63.49,77.45"
2024-05-28_13-19-34.976118,"92.98,75.60"
2024-05-28_13-19-35.008784,"93.96,80.56"
2024-05-28_13-19-35.041507,"70.64,77.27"
2024-05-28_13-19-35.074246,"73.06,76.05"
2024-05-28_13-19-35.102996,"77.65,82.34"
2024-05-28_13-19-35.135750,"74.95,69.64"
2024-05-28_13-19-35.168568,"89.21,67.03"
2024-05-28_13-19-35.201294,"85.31,71.65"
2024-05-28_13-19-35.234105,"98.40,46.04"
2024-05-28_13-19-35.266800,"65.19,79.93"
2024-05-28_13-19-35.299505,"93.81,77.33"
2024-05-28_13-19-35.328284,"94.83,87.61"
2024-05-28_13-19-35.361122,"77.58,79.88"
2024-05-28_13-19-35.393854,"83.66,81.53"
2024-05-28_13-19-35.426597,"87.74,78.65"
2024-05-28_13-19-35.459367,"81.39,68.28"
2024-05-28_13-19-35.492100,"83.43,80.69"
2024-05-28_13-19-35.524780,"85.57,72.11"
2024-05-28_13-19-35.553566,"93.32,54.20"
2024-05-28_13-19-35.586329,"66.70,75.69"
2024-05-28_13-19-35.619138,"81.64,81.91"
2024-05-28_13-19-35.651878,"85.56,78.62"
2024-05-28_13-19-35.684616,"87.08,77.54"
2024-05-28_13-19-35.717372,"72.02,72.52"
2024-05-28_13-19-35.750091,"89.66,77.60"
2024-05-28_13-19-35.778829,"65.76,71.04"
2024-05-28_13-19-35.811638,"83.35,77.43"
2024-05-28_13-19-35.844384,"102.49,72.27"
2024-05-28_13-19-35.877163,"84.02,56.45"
2024-05-28_13-19-35.909929,"68.89,74.89"
2024-05-28_13-19-35.942648,"89.75,88.66"
2024-05-28_13-19-35.975365,"75.41,74.56"
2024-05-28_13-19-36.004156,"86.20,78.11"
2024-05-28_13-19-36.036942,"75.35,70.90"
2024-05-28_13-19-36.069692,"82.85,78.84"
2024-05-28_13-19-36.102487,"79.84,71.85"
2024-05-28_13-19-36.135232,"87.58,82.41"
2024-05-28_13-19-36.167972,"87.09,68.30"
2024-05-28_13-19-36.200667,"91.51,53.26"
2024-05-28_13-19-36.229404,"69.60,52.77"
2024-05-28_13-19-36.262182,"85.07,93.19"
2024-05-28_13-19-36.294936,"82.69,68.67"
2024-05-28_13-19-36.327742,"80.72,80.80"
2024-05-28_13-19-36.360481,"73.28,73.27"
2024-05-28_13-19-36.393295,"84.40,76.24"
2024-05-28_13-19-36.425943,"93.19,83.90"
2024-05-28_13-19-36.454695,"77.03,69.75"
2024-05-28_13-19-36.487485,"88.45,68.51"
2024-05-28_13-19-36.520298,"93.93,62.03"
2024-05-28_13-19-36.553131,"63.95,93.37"
2024-05-28_13-19-36.585777,"89.87,94.43"
2024-05-28_13-19-36.618544,"94.90,70.79"
2024-05-28_13-19-36.651271,"81.14,78.82"
2024-05-28_13-19-36.679966,"75.59,73.06"
2024-05-28_13-19-36.712787,"76.67,81.25"
2024-05-28_13-19-36.745525,"87.88,80.45"
2024-05-28_13-19-36.778356,"86.90,68.45"
2024-05-28_13-19-36.811139,"92.57,68.89"
2024-05-28_13-19-36.843939,"86.62,53.55"
2024-05-28_13-19-36.876542,"74.47,72.88"
2024-05-28_13-19-36.905287,"85.66,79.99"
2024-05-28_13-19-36.938054,"83.48,83.70"
2024-05-28_13-19-36.970804,"86.42,79.50"
2024-05-28_13-19-37.003583,"85.73,83.36"
2024-05-28_13-19-37.036386,"80.09,69.67"
2024-05-28_13-19-37.069124,"88.30,79.77"
2024-05-28_13-19-37.101828,"86.51,72.33"
2024-05-28_13-19-37.134572,"102.58,63.83"
2024-05-28_13-19-37.163378,"78.63,59.46"
2024-05-28_13-19-37.196104,"73.05,78.99"
2024-05-28_13-19-37.228872,"96.96,80.37"
2024-05-28_13-19-37.261623,"84.18,82.60"
2024-05-28_13-19-37.294402,"91.82,83.59"
2024-05-28_13-19-37.327133,"83.98,78.04"
2024-05-28_13-19-37.359840,"78.23,67.69"
2024-05-28_13-19-37.388655,"81.75,79.97"
2024-05-28_13-19-37.421387,"84.28,72.49"
2024-05-28_13-19-37.454165,"102.33,53.30"
2024-05-28_13-19-37.487041,"71.05,71.86"
2024-05-28_13-19-37.519773,"81.89,77.32"
2024-05-28_13-19-37.552416,"100.07,83.56"
2024-05-28_13-19-37.585096,"93.30,79.13"
2024-05-28_13-19-37.613895,"69.61,73.86"
2024-05-28_13-19-37.646678,"87.96,77.80"
2024-05-28_13-19-37.679436,"77.38,71.44"
2024-05-28_13-19-37.712282,"82.41,77.45"
2024-05-28_13-19-37.744971,"94.94,84.71"
2024-05-28_13-19-37.777685,"87.58,55.08"
2024-05-28_13-19-37.810397,"70.37,68.16"
2024-05-28_13-19-37.839174,"89.79,89.92"
2024-05-28_13-19-37.871973,"86.67,73.61"
2024-05-28_13-19-37.904730,"95.87,81.08"
2024-05-28_13-19-37.937521,"74.66,72.27"
2024-05-28_13-19-37.970248,"82.81,78.58"
2024-05-28_13-19-38.002989,"81.16,71.23"
2024-05-28_13-19-38.035760,"88.14,82.03"
2024-05-28_13-19-38.064536,"87.07,68.45"
2024-05-28_13-19-38.097287,"87.15,53.10"
2024-05-28_13-19-38.130082,"64.15,93.47"
2024-05-28_13-19-38.162808,"100.07,89.94"
2024-05-28_13-19-38.195590,"92.22,90.36"
2024-05-28_13-19-38.228266,"89.78,94.01"
2024-05-28_13-19-38.261003,"73.24,73.40"
2024-05-28_13-19-38.289828,"85.18,75.63"
2024-05-28_13-19-38.322572,"94.96,70.69"
2024-05-28_13-19-38.355348,"78.15,70.37"
2024-05-28_13-19-38.388067,"105.47,52.09"
2024-05-28_13-19-38.420827,"82.16,52.51"
2024-05-28_13-19-38.453573,"83.44,77.23"
2024-05-28_13-19-38.486284,"94.01,85.97"
2024-05-28_13-19-38.515037,"88.24,67.12"
2024-05-28_13-19-38.547814,"86.15,79.81"
2024-05-28_13-19-38.580587,"82.08,72.31"
2024-05-28_13-19-38.613402,"82.89,80.79"
2024-05-28_13-19-38.646233,"89.50,82.37"
2024-05-28_13-19-38.678844,"78.89,56.33"
2024-05-28_13-19-38.711542,"93.86,58.53"
2024-05-28_13-19-38.740382,"76.02,56.50"
2024-05-28_13-19-38.773088,"81.56,87.31"
2024-05-28_13-19-38.805876,"104.97,82.35"
2024-05-28_13-19-38.838698,"75.88,69.28"
2024-05-28_13-19-38.871473,"93.51,78.24"
2024-05-28_13-19-38.904229,"86.19,84.00"
2024-05-28_13-19-38.936847,"73.88,70.66"
2024-05-28_13-19-38.965643,"90.27,81.23"
2024-05-28_13-19-38.998426,"93.73,71.80"
2024-05-28_13-19-39.031185,"93.33,47.58"
2024-05-28_13-19-39.063981,"68.30,77.08"
2024-05-28_13-19-39.096659,"89.57,74.06"
2024-05-28_13-19-39.129455,"102.70,76.90"
2024-05-28_13-19-39.162176,"84.82,77.68"
2024-05-28_13-19-39.190870,"85.59,82.04"
2024-05-28_13-19-39.223665,"91.04,78.90"
2024-05-28_13-19-39.256463,"83.33,68.60"
2024-05-28_13-19-39.289239,"81.60,81.29"
2024-05-28_13-19-39.321977,"104.87,56.31"
2024-05-28_13-19-39.354731,"83.61,55.32"
2024-05-28_13-19-39.387441,"66.86,71.77"
2024-05-28_13-19-39.416194,"90.35,72.90"
2024-05-28_13-19-39.448971,"81.84,74.53"
2024-05-28_13-19-39.481746,"93.23,88.70"
2024-05-28_13-19-39.514554,"76.91,71.51"
2024-05-28_13-19-39.547266,"83.43,79.78"
2024-05-28_13-19-39.580056,"85.79,72.41"
2024-05-28_13-19-39.612724,"81.79,77.65"
2024-05-28_13-19-39.645439,"105.39,55.44"
2024-05-28_13-19-39.674213,"71.31,57.43"
2024-05-28_13-19-39.706983,"77.82,74.32"
2024-05-28_13-19-39.739792,"105.14,89.33"
2024-05-28_13-19-39.772537,"81.35,75.31"
2024-05-28_13-19-39.805287,"76.12,77.72"
2024-05-28_13-19-39.838008,"84.55,70.84"
2024-05-28_13-19-39.866731,"78.17,80.56"
2024-05-28_13-19-39.899503,"82.68,70.70"
2024-05-28_13-19-39.932281,"89.22,82.44"
2024-05-28_13-19-39.965017,"96.87,52.94"
2024-05-28_13-19-39.997823,"67.80,82.65"
2024-05-28_13-19-40.030588,"91.19,90.19"
2024-05-28_13-19-40.063266,"98.42,90.63"
2024-05-28_13-19-40.096019,"76.41,80.37"
2024-05-28_13-19-40.124922,"76.13,81.43"
2024-05-28_13-19-40.157567,"77.11,72.59"
2024-05-28_13-19-40.190344,"80.77,76.43"
2024-05-28_13-19-40.225387,"94.89,84.20"
2024-05-28_13-19-40.255925,"83.25,70.10"
2024-05-28_13-19-40.288583,"66.09,82.12"
2024-05-28_13-19-40.321287,"70.66,89.86"
2024-05-28_13-19-40.350047,"84.06,80.15"
2024-05-28_13-19-40.382857,"92.52,72.52"
2024-05-28_13-19-40.415640,"89.79,75.36"
2024-05-28_13-19-40.448342,"77.35,79.76"
2024-05-28_13-19-40.481116,"86.63,71.91"
2024-05-28_13-19-40.513867,"86.27,81.11"
2024-05-28_13-19-40.546574,"88.14,81.78"
2024-05-28_13-19-40.575363,"85.32,53.04"
2024-05-28_13-19-40.608166,"74.86,54.61"
2024-05-28_13-19-40.640971,"89.94,92.33"
2024-05-28_13-19-40.673738,"94.23,77.19"
2024-05-28_13-19-40.706490,"72.64,83.45"
2024-05-28_13-19-40.739192,"81.45,73.80"
2024-05-28_13-19-40.771876,"92.98,76.38"
2024-05-28_13-19-40.800646,"85.86,83.15"
2024-05-28_13-19-40.833435,"74.33,70.12"
2024-05-28_13-19-40.866292,"90.29,68.70"
2024-05-28_13-19-40.898979,"100.27,56.58"
2024-05-28_13-19-40.931731,"72.21,47.86"
2024-05-28_13-19-40.964465,"90.06,90.13"
2024-05-28_13-19-40.997171,"73.48,63.06"
2024-05-28_13-19-41.025940,"79.05,78.84"
2024-05-28_13-19-41.058691,"73.82,72.76"
2024-05-28_13-19-41.091543,"87.94,80.78"
2024-05-28_13-19-41.124238,"86.20,80.03"
2024-05-28_13-19-41.157062,"86.30,67.95"
2024-05-28_13-19-41.189752,"80.26,67.78"
2024-05-28_13-19-41.222469,"89.23,71.72"
2024-05-28_13-19-41.251237,"73.91,85.48"
2024-05-28_13-19-41.284039,"94.39,82.60"
2024-05-28_13-19-41.316810,"95.81,81.66"
2024-05-28_13-19-41.349532,"90.34,77.18"
2024-05-28_13-19-41.382291,"73.05,82.44"
2024-05-28_13-19-41.415025,"70.72,69.77"
2024-05-28_13-19-41.447745,"89.21,80.39"
2024-05-28_13-19-41.476562,"83.11,70.93"
2024-05-28_13-19-41.509353,"95.05,45.68"
2024-05-28_13-19-41.542044,"66.65,81.77"
2024-05-28_13-19-41.574825,"81.13,83.37"
2024-05-28_13-19-41.607610,"107.74,85.20"
2024-05-28_13-19-41.640323,"75.01,80.39"
2024-05-28_13-19-41.673006,"83.12,81.54"
2024-05-28_13-19-41.701839,"89.63,79.34"
2024-05-28_13-19-41.734633,"84.31,68.81"
2024-05-28_13-19-41.767408,"83.21,67.20"
2024-05-28_13-19-41.800167,"103.21,55.99"
2024-05-28_13-19-41.832874,"84.82,55.55"
2024-05-28_13-19-41.865604,"69.08,74.62"
2024-05-28_13-19-41.898316,"91.72,73.96"
2024-05-28_13-19-41.927060,"71.03,70.25"
2024-05-28_13-19-41.959828,"93.12,85.97"
2024-05-28_13-19-41.992690,"76.98,72.25"
2024-05-28_13-19-42.025378,"83.53,79.25"
2024-05-28_13-19-42.058171,"83.16,71.24"
2024-05-28_13-19-42.090927,"81.41,63.65"
2024-05-28_13-19-42.123625,"101.10,56.29"
2024-05-28_13-19-42.152441,"67.45,56.49"
2024-05-28_13-19-42.185124,"78.91,82.56"
2024-05-28_13-19-42.217900,"103.99,90.51"
2024-05-28_13-19-42.250735,"95.52,87.31"
2024-05-28_13-19-42.283455,"77.46,79.13"
2024-05-28_13-19-42.316206,"78.09,69.48"
2024-05-28_13-19-42.348904,"80.89,79.31"
2024-05-28_13-19-42.377617,"81.67,71.42"
2024-05-28_13-19-42.410433,"97.22,82.99"
2024-05-28_13-19-42.443199,"94.98,69.76"
2024-05-28_13-19-42.475969,"58.72,55.04"
2024-05-28_13-19-42.508712,"99.02,90.23"
2024-05-28_13-19-42.541527,"95.63,70.81"
2024-05-28_13-19-42.574172,"81.69,77.25"
2024-05-28_13-19-42.602929,"81.41,78.67"
2024-05-28_13-19-42.635692,"77.72,71.64"
2024-05-28_13-19-42.668481,"79.93,76.63"
2024-05-28_13-19-42.701264,"95.24,84.39"
2024-05-28_13-19-42.734058,"86.19,55.00"
2024-05-28_13-19-42.766800,"96.26,52.22"
2024-05-28_13-19-42.799463,"66.34,68.13"
2024-05-28_13-19-42.828236,"98.04,80.80"
2024-05-28_13-19-42.860985,"80.48,72.23"
2024-05-28_13-19-42.893797,"96.68,78.81"
2024-05-28_13-19-42.926546,"76.64,80.14"
2024-05-28_13-19-42.959285,"82.43,70.90"
2024-05-28_13-19-42.992073,"86.33,81.77"
2024-05-28_13-19-43.024780,"89.97,82.12"
2024-05-28_13-19-43.057460,"97.12,51.63"
2024-05-28_13-19-43.086269,"77.14,53.53"
2024-05-28_13-19-43.119033,"86.87,91.83"
2024-05-28_13-19-43.151814,"96.26,76.58"
2024-05-28_13-19-43.184607,"97.40,85.54"
2024-05-28_13-19-43.217375,"92.52,76.11"
2024-05-28_13-19-43.250037,"78.65,77.54"
2024-05-28_13-19-43.282764,"90.32,83.61"
2024-05-28_13-19-43.311547,"76.62,70.24"
2024-05-28_13-19-43.344364,"87.98,81.55"
2024-05-28_13-19-43.377116,"91.91,64.30"
2024-05-28_13-19-43.409850,"65.39,87.23"
2024-05-28_13-19-43.442707,"93.18,94.27"
2024-05-28_13-19-43.475321,"95.30,70.40"
2024-05-28_13-19-43.508034,"81.48,80.49"
2024-05-28_13-19-43.536820,"75.48,73.09"
2024-05-28_13-19-43.569600,"89.27,80.78"
2024-05-28_13-19-43.602409,"87.46,80.99"
2024-05-28_13-19-43.635161,"87.23,69.11"
2024-05-28_13-19-43.668003,"91.28,51.76"
2024-05-28_13-19-43.700662,"89.32,72.73"
2024-05-28_13-19-43.733295,"74.35,87.96"
2024-05-28_13-19-43.762120,"96.44,81.13"
2024-05-28_13-19-43.794905,"84.24,80.80"
2024-05-28_13-19-43.827698,"79.08,77.66"
2024-05-28_13-19-43.860447,"85.27,83.16"
2024-05-28_13-19-43.893202,"68.22,70.17"
2024-05-28_13-19-43.925906,"89.53,81.20"
2024-05-28_13-19-43.958627,"85.34,71.32"
2024-05-28_13-19-43.987392,"97.26,45.36"
2024-05-28_13-19-44.020149,"69.67,90.52"
2024-05-28_13-19-44.052951,"81.22,82.77"
2024-05-28_13-19-44.085764,"103.99,83.51"
2024-05-28_13-19-44.118483,"97.85,69.62"
2024-05-28_13-19-44.153634,"78.54,83.44"
2024-05-28_13-19-44.183882,"86.16,78.34"
2024-05-28_13-19-44.212737,"80.23,68.01"
2024-05-28_13-19-44.245490,"81.51,80.01"
2024-05-28_13-19-44.278260,"95.40,55.65"
2024-05-28_13-19-44.311026,"86.39,54.90"
2024-05-28_13-19-44.343816,"65.60,72.62"
2024-05-28_13-19-44.376489,"90.38,73.14"
2024-05-28_13-19-44.409170,"94.84,70.41"
2024-05-28_13-19-44.437960,"95.03,87.34"
2024-05-28_13-19-44.470735,"75.81,70.92"
2024-05-28_13-19-44.503497,"80.14,79.42"
2024-05-28_13-19-44.536393,"83.93,71.02"
2024-05-28_13-19-44.569066,"83.97,64.04"
2024-05-28_13-19-44.601785,"104.02,56.30"
2024-05-28_13-19-44.634485,"64.25,73.24"
2024-05-28_13-19-44.663255,"74.69,89.48"
2024-05-28_13-19-44.696070,"105.60,88.32"
2024-05-28_13-19-44.728842,"80.52,75.30"
2024-05-28_13-19-44.761633,"76.32,79.38"
2024-05-28_13-19-44.794334,"84.45,69.03"
2024-05-28_13-19-44.827070,"78.48,78.97"
2024-05-28_13-19-44.859742,"85.61,70.92"
2024-05-28_13-19-44.888722,"89.20,82.52"
2024-05-28_13-19-44.921316,"95.87,79.88"
2024-05-28_13-19-44.954075,"64.11,54.90"
2024-05-28_13-19-44.986892,"95.18,91.00"
2024-05-28_13-19-45.019682,"92.60,75.34"
2024-05-28_13-19-45.052336,"83.77,79.55"
2024-05-28_13-19-45.085052,"81.59,77.96"
2024-05-28_13-19-45.113829,"79.54,71.25"
2024-05-28_13-19-45.146616,"81.08,77.06"
2024-05-28_13-19-45.179356,"95.30,84.69"
2024-05-28_13-19-45.212141,"80.55,54.70"
2024-05-28_13-19-45.244940,"86.87,80.56"
2024-05-28_13-19-45.277644,"68.67,87.46"
2024-05-28_13-19-45.310339,"94.57,83.55"
2024-05-28_13-19-45.352568,"92.54,84.14"
2024-05-28_13-19-45.373955,"94.47,74.08"
2024-05-28_13-19-45.405828,"84.21,59.05"
2024-05-28_13-19-45.438025,"101.16,65.20"
2024-05-28_13-19-45.470263,"92.49,57.42"
2024-05-28_13-19-45.503023,"89.42,65.34"
2024-05-28_13-19-45.535648,"90.18,52.52"
2024-05-28_13-19-45.564454,"69.57,77.48"
2024-05-28_13-19-45.597202,"93.72,90.13"
2024-05-28_13-19-45.629925,"93.26,88.88"
2024-05-28_13-19-45.662711,"84.90,80.69"
2024-05-28_13-19-45.695485,"77.90,73.12"
2024-05-28_13-19-45.728324,"85.89,75.64"
2024-05-28_13-19-45.760964,"94.63,83.06"
2024-05-28_13-19-45.789931,"78.58,71.11"
2024-05-28_13-19-45.822512,"101.54,62.34"
2024-05-28_13-19-45.855251,"72.53,81.59"
2024-05-28_13-19-45.887968,"81.52,84.23"
2024-05-28_13-19-45.920812,"93.04,84.36"
2024-05-28_13-19-45.953638,"78.99,68.61"
2024-05-28_13-19-45.986220,"73.40,79.37"
2024-05-28_13-19-46.014969,"83.38,71.28"
2024-05-28_13-19-46.047733,"86.05,81.57"
2024-05-28_13-19-46.080481,"89.38,81.70"
2024-05-28_13-19-46.113294,"95.63,51.66"
2024-05-28_13-19-46.146320,"88.13,81.88"
2024-05-28_13-19-46.179034,"72.50,85.14"
2024-05-28_13-19-46.211579,"92.25,90.27"
2024-05-28_13-19-46.244258,"78.26,86.64"
2024-05-28_13-19-46.273192,"74.08,77.83"
2024-05-28_13-19-46.305876,"84.03,77.87"
2024-05-28_13-19-46.338654,"79.61,85.12"
2024-05-28_13-19-46.371463,"78.40,70.58"
2024-05-28_13-19-46.404805,"103.60,84.22"
2024-05-28_13-19-46.437027,"75.91,72.52"
2024-05-28_13-19-46.469501,"73.07,71.81"
2024-05-28_13-19-46.498357,"77.73,79.82"
2024-05-28_13-19-46.531139,"94.30,64.89"
2024-05-28_13-19-46.563964,"81.01,85.60"
2024-05-28_13-19-46.596633,"65.37,77.41"
2024-05-28_13-19-46.629456,"84.55,81.34"
2024-05-28_13-19-46.662114,"89.40,80.86"
2024-05-28_13-19-46.694844,"91.16,55.04"
2024-05-28_13-19-46.723575,"79.92,69.04"
2024-05-28_13-19-46.756384,"89.40,55.01"
2024-05-28_13-19-46.789144,"77.91,84.97"
2024-05-28_13-19-46.821942,"92.91,82.82"
2024-05-28_13-19-46.854688,"92.18,91.28"
2024-05-28_13-19-46.887377,"75.93,79.81"
2024-05-28_13-19-46.920102,"83.33,83.20"
2024-05-28_13-19-46.948951,"80.87,70.45"
2024-05-28_13-19-46.981663,"90.12,80.56"
2024-05-28_13-19-47.014405,"84.31,71.49"
2024-05-28_13-19-47.047176,"96.38,46.04"
2024-05-28_13-19-47.079956,"73.51,66.10"
2024-05-28_13-19-47.112675,"80.53,76.26"
2024-05-28_13-19-47.145357,"95.01,83.36"
2024-05-28_13-19-47.174167,"88.50,68.31"
2024-05-28_13-19-47.206920,"80.26,82.26"
2024-05-28_13-19-47.239697,"86.94,78.27"
2024-05-28_13-19-47.272480,"84.62,68.42"
2024-05-28_13-19-47.305249,"82.90,80.78"
2024-05-28_13-19-47.337977,"81.49,72.02"
2024-05-28_13-19-47.370651,"92.89,54.72"
2024-05-28_13-19-47.399507,"77.73,91.38"
2024-05-28_13-19-47.432393,"89.60,75.77"
2024-05-28_13-19-47.465071,"95.03,87.56"
2024-05-28_13-19-47.497756,"99.40,90.29"
2024-05-28_13-19-47.530506,"73.44,71.14"
2024-05-28_13-19-47.563248,"80.03,79.11"
2024-05-28_13-19-47.596002,"82.77,70.72"
2024-05-28_13-19-47.624729,"82.41,77.65"
2024-05-28_13-19-47.657497,"107.74,71.46"
2024-05-28_13-19-47.690253,"70.17,84.18"
2024-05-28_13-19-47.723034,"77.22,73.22"
2024-05-28_13-19-47.755799,"97.67,87.04"
2024-05-28_13-19-47.788546,"80.77,74.48"
2024-05-28_13-19-47.821243,"77.06,78.64"
2024-05-28_13-19-47.850013,"84.85,69.22"
2024-05-28_13-19-47.883007,"79.46,78.89"
2024-05-28_13-19-47.915630,"80.83,78.45"
2024-05-28_13-19-47.948425,"89.85,53.96"
2024-05-28_13-19-47.981101,"104.92,52.68"
2024-05-28_13-19-48.013889,"63.67,58.76"
2024-05-28_13-19-48.046585,"91.82,90.37"
2024-05-28_13-19-48.075375,"104.93,84.64"
2024-05-28_13-19-48.108116,"91.15,81.37"
2024-05-28_13-19-48.140866,"88.90,79.87"
2024-05-28_13-19-48.173635,"76.48,71.62"
2024-05-28_13-19-48.206368,"81.63,76.62"
2024-05-28_13-19-48.239135,"95.68,84.79"
2024-05-28_13-19-48.271832,"85.60,70.93"
2024-05-28_13-19-48.300669,"97.13,52.82"
2024-05-28_13-19-48.333406,"65.73,77.25"
2024-05-28_13-19-48.366141,"91.84,88.16"
2024-05-28_13-19-48.398889,"82.05,74.25"
2024-05-28_13-19-48.431666,"79.58,73.56"
2024-05-28_13-19-48.464493,"77.64,78.33"
2024-05-28_13-19-48.497116,"80.20,71.49"
2024-05-28_13-19-48.525858,"89.38,82.27"
2024-05-28_13-19-48.558647,"88.68,81.43"
2024-05-28_13-19-48.591481,"94.63,51.73"
2024-05-28_13-19-48.624320,"69.51,64.44"
2024-05-28_13-19-48.656941,"95.86,90.75"
2024-05-28_13-19-48.689733,"95.27,78.96"
2024-05-28_13-19-48.722416,"77.95,81.87"
2024-05-28_13-19-48.755115,"84.88,73.71"
2024-05-28_13-19-48.783930,"82.67,75.22"
2024-05-28_13-19-48.816754,"87.36,83.67"
2024-05-28_13-19-48.849461,"78.18,70.86"
2024-05-28_13-19-48.882231,"88.46,68.33"
2024-05-28_13-19-48.915321,"93.52,61.08"
2024-05-28_13-19-48.949669,"71.02,83.55"
2024-05-28_13-19-48.980354,"76.15,84.28"
2024-05-28_13-19-49.009200,"81.28,78.94"
2024-05-28_13-19-49.041958,"78.83,86.33"
2024-05-28_13-19-49.074729,"72.95,71.81"
2024-05-28_13-19-49.107529,"87.66,81.45"
2024-05-28_13-19-49.140329,"88.12,81.03"
2024-05-28_13-19-49.173042,"84.19,68.27"
2024-05-28_13-19-49.205701,"80.08,68.07"
2024-05-28_13-19-49.234651,"88.38,73.64"
2024-05-28_13-19-49.267409,"83.70,79.82"
2024-05-28_13-19-49.300411,"91.02,84.17"
2024-05-28_13-19-49.332826,"95.18,83.24"
2024-05-28_13-19-49.365563,"97.57,79.42"
2024-05-28_13-19-49.398267,"84.85,83.22"
2024-05-28_13-19-49.431028,"70.10,70.19"
2024-05-28_13-19-49.459768,"88.64,80.68"
2024-05-28_13-19-49.492564,"87.06,72.30"
2024-05-28_13-19-49.525314,"95.98,45.65"
2024-05-28_13-19-49.558066,"68.84,87.30"
2024-05-28_13-19-49.590877,"81.09,80.97"
2024-05-28_13-19-49.623588,"104.70,86.33"
2024-05-28_13-19-49.656292,"75.05,66.44"
2024-05-28_13-19-49.685093,"83.14,81.07"
2024-05-28_13-19-49.717820,"90.38,78.03"
2024-05-28_13-19-49.750608,"83.19,68.89"
2024-05-28_13-19-49.783386,"80.72,80.84"
2024-05-28_13-19-49.828664,"95.57,71.58"
2024-05-28_13-19-49.848945,"79.18,54.43"
2024-05-28_13-19-49.881562,"91.28,71.94"
2024-05-28_13-19-49.910380,"77.13,59.65"
2024-05-28_13-19-49.945129,"92.66,77.08"
2024-05-28_13-19-49.976008,"69.50,105.17"
2024-05-28_13-19-50.008710,"64.68,69.73"
2024-05-28_13-19-50.041433,"81.96,79.49"
2024-05-28_13-19-50.074136,"83.02,70.63"
2024-05-28_13-19-50.106850,"81.41,77.66"
2024-05-28_13-19-50.135662,"109.22,72.72"
2024-05-28_13-19-50.168434,"73.76,56.15"
2024-05-28_13-19-50.201150,"76.10,74.46"
2024-05-28_13-19-50.233965,"94.95,88.50"
2024-05-28_13-19-50.266700,"80.21,75.75"
2024-05-28_13-19-50.299750,"88.26,77.40"
2024-05-28_13-19-50.332160,"86.02,70.59"
2024-05-28_13-19-50.360953,"77.35,79.16"
2024-05-28_13-19-50.393664,"83.27,71.34"
2024-05-28_13-19-50.426416,"87.40,82.45"
2024-05-28_13-19-50.459258,"104.16,53.12"
2024-05-28_13-19-50.492001,"62.99,58.74"
2024-05-28_13-19-50.524714,"92.36,89.37"
2024-05-28_13-19-50.557492,"105.51,93.92"
2024-05-28_13-19-50.586270,"88.17,80.04"
2024-05-28_13-19-50.620545,"93.45,82.95"
2024-05-28_13-19-50.657209,"82.18,73.29"
2024-05-28_13-19-50.685116,"95.86,67.71"
2024-05-28_13-19-50.717415,"88.90,60.22"
2024-05-28_13-19-50.750007,"97.37,55.16"
2024-05-28_13-19-50.782692,"99.49,55.16"
2024-05-28_13-19-50.811519,"65.94,85.89"
2024-05-28_13-19-50.844269,"91.04,80.91"
2024-05-28_13-19-50.877064,"89.19,75.30"
2024-05-28_13-19-50.909793,"75.35,74.85"
2024-05-28_13-19-50.942633,"77.21,77.99"
2024-05-28_13-19-50.975305,"79.27,72.74"
2024-05-28_13-19-51.008001,"84.25,81.56"
2024-05-28_13-19-51.036885,"90.70,81.93"
2024-05-28_13-19-51.069522,"90.80,51.11"
2024-05-28_13-19-51.102386,"83.77,82.98"
2024-05-28_13-19-51.135448,"84.40,93.90"
2024-05-28_13-19-51.167919,"91.93,76.10"
2024-05-28_13-19-51.200572,"78.54,87.94"
2024-05-28_13-19-51.233637,"77.32,74.36"
2024-05-28_13-19-51.262058,"91.09,75.59"
2024-05-28_13-19-51.294796,"84.24,84.11"
2024-05-28_13-19-51.327633,"77.24,69.22"
2024-05-28_13-19-51.360428,"89.35,69.15"
2024-05-28_13-19-51.393114,"106.03,55.94"
2024-05-28_13-19-51.426043,"76.85,71.63"
2024-05-28_13-19-51.458546,"90.69,94.01"
2024-05-28_13-19-51.487343,"94.26,89.68"
2024-05-28_13-19-51.520117,"73.57,83.36"
2024-05-28_13-19-51.552859,"81.86,73.80"
2024-05-28_13-19-51.585622,"84.17,81.60"
2024-05-28_13-19-51.618415,"86.82,79.92"
2024-05-28_13-19-51.651262,"84.84,68.07"
2024-05-28_13-19-51.684048,"75.70,56.17"
2024-05-28_13-19-51.712762,"90.79,74.01"
2024-05-28_13-19-51.745385,"79.06,81.82"
2024-05-28_13-19-51.778203,"96.15,74.10"
2024-05-28_13-19-51.810932,"71.22,64.85"
2024-05-28_13-19-51.844087,"81.03,79.93"
2024-05-28_13-19-51.876494,"83.76,87.83"
2024-05-28_13-19-51.909218,"75.96,72.15"
2024-05-28_13-19-51.937868,"75.40,79.48"
2024-05-28_13-19-51.970711,"87.13,71.61"
2024-05-28_13-19-52.003434,"77.77,64.41"
2024-05-28_13-19-52.036306,"86.36,80.90"
2024-05-28_13-19-52.068974,"69.00,68.02"
2024-05-28_13-19-52.101742,"97.29,84.15"
2024-05-28_13-19-52.134458,"81.75,87.89"
2024-05-28_13-19-52.167158,"89.92,83.49"
2024-05-28_13-19-52.196044,"86.62,78.27"
2024-05-28_13-19-52.228762,"77.03,68.35"
2024-05-28_13-19-52.261519,"81.66,81.30"
2024-05-28_13-19-52.294291,"85.00,72.64"
2024-05-28_13-19-52.327059,"98.26,54.24"
2024-05-28_13-19-52.359729,"71.78,65.76"
2024-05-28_13-19-52.392438,"79.01,82.70"
2024-05-28_13-19-52.421280,"86.09,79.93"
2024-05-28_13-19-52.454032,"83.48,80.36"
2024-05-28_13-19-52.486826,"70.91,74.60"
2024-05-28_13-19-52.519615,"85.89,79.45"
2024-05-28_13-19-52.552303,"80.10,71.10"
2024-05-28_13-19-52.585052,"82.13,77.43"
2024-05-28_13-19-52.617700,"93.89,85.13"
2024-05-28_13-19-52.646588,"83.17,54.77"
2024-05-28_13-19-52.679341,"74.64,76.69"
2024-05-28_13-19-52.712078,"101.01,85.16"
2024-05-28_13-19-52.744897,"86.93,91.61"
2024-05-28_13-19-52.777604,"86.58,78.61"
2024-05-28_13-19-52.810307,"79.88,70.97"
2024-05-28_13-19-52.843044,"84.95,78.63"
2024-05-28_13-19-52.871811,"82.76,71.27"
2024-05-28_13-19-52.904570,"88.40,82.41"
2024-05-28_13-19-52.937347,"103.59,68.87"
2024-05-28_13-19-52.970113,"80.32,53.23"
2024-05-28_13-19-53.002946,"72.21,73.32"
2024-05-28_13-19-53.035700,"93.39,74.25"
2024-05-28_13-19-53.068346,"93.02,78.57"
2024-05-28_13-19-53.097115,"83.50,82.63"
2024-05-28_13-19-53.129866,"78.08,72.38"
2024-05-28_13-19-53.162619,"76.89,76.33"
2024-05-28_13-19-53.195420,"95.51,84.34"
2024-05-28_13-19-53.228211,"77.81,70.21"
2024-05-28_13-19-53.260914,"105.02,52.40"
2024-05-28_13-19-53.293758,"67.37,72.23"
2024-05-28_13-19-53.322396,"81.26,83.82"
2024-05-28_13-19-53.355274,"98.56,93.07"
2024-05-28_13-19-53.387966,"61.94,86.48"
2024-05-28_13-19-53.420680,"60.67,92.13"
2024-05-28_13-19-53.453479,"79.38,71.33"
2024-05-28_13-19-53.486188,"86.52,81.21"
2024-05-28_13-19-53.518899,"89.26,81.31"
2024-05-28_13-19-53.547745,"93.25,51.07"
2024-05-28_13-19-53.580486,"94.82,52.04"
2024-05-28_13-19-53.613264,"61.15,77.48"
2024-05-28_13-19-53.645949,"92.06,74.12"
2024-05-28_13-19-53.678796,"100.94,86.15"
2024-05-28_13-19-53.711468,"84.03,78.60"
2024-05-28_13-19-53.744202,"85.81,77.21"
2024-05-28_13-19-53.772933,"81.91,82.48"
2024-05-28_13-19-53.805711,"77.45,70.06"
2024-05-28_13-19-53.838484,"88.96,81.44"
2024-05-28_13-19-53.871264,"83.92,55.71"
2024-05-28_13-19-53.904064,"87.41,46.99"
2024-05-28_13-19-53.937051,"50.82,91.53"
2024-05-28_13-19-53.969488,"83.59,65.24"
2024-05-28_13-19-53.998241,"76.04,86.01"
2024-05-28_13-19-54.031025,"63.72,74.07"
2024-05-28_13-19-54.063784,"90.81,80.97"
2024-05-28_13-19-54.096575,"84.33,80.02"
2024-05-28_13-19-54.129349,"85.98,68.19"
2024-05-28_13-19-54.162045,"82.25,68.54"
2024-05-28_13-19-54.194739,"96.91,56.93"
2024-05-28_13-19-54.223561,"64.90,77.40"
2024-05-28_13-19-54.256337,"95.65,87.17"
2024-05-28_13-19-54.289047,"89.84,65.24"
2024-05-28_13-19-54.321897,"80.63,82.72"
2024-05-28_13-19-54.354545,"90.13,84.28"
2024-05-28_13-19-54.387371,"75.38,70.71"
2024-05-28_13-19-54.420212,"88.62,79.65"
2024-05-28_13-19-54.448879,"83.03,80.34"
2024-05-28_13-19-54.481601,"88.73,55.77"
2024-05-28_13-19-54.514381,"95.48,60.26"
2024-05-28_13-19-54.547129,"52.99,58.58"
2024-05-28_13-19-54.579970,"96.27,88.51"
2024-05-28_13-19-54.612606,"89.03,76.99"
2024-05-28_13-19-54.645359,"84.75,83.75"
2024-05-28_13-19-54.674111,"82.82,77.32"
2024-05-28_13-19-54.706865,"84.11,68.45"
2024-05-28_13-19-54.740752,"81.27,80.46"
2024-05-28_13-19-54.772487,"84.79,64.64"
2024-05-28_13-19-54.805185,"91.02,56.59"
2024-05-28_13-19-54.843065,"81.99,56.32"
2024-05-28_13-19-54.870732,"60.06,63.42"
2024-05-28_13-19-54.899418,"95.98,89.96"
2024-05-28_13-19-54.932205,"81.08,86.08"
2024-05-28_13-19-54.964916,"67.69,74.06"
2024-05-28_13-19-54.997677,"84.81,78.41"
2024-05-28_13-19-55.030454,"88.25,71.85"
2024-05-28_13-19-55.063290,"82.33,77.57"
2024-05-28_13-19-55.095896,"95.58,72.43"
2024-05-28_13-19-55.124690,"89.11,56.02"
2024-05-28_13-19-55.157518,"74.28,65.70"
2024-05-28_13-19-55.190207,"97.57,87.74"
2024-05-28_13-19-55.222969,"85.06,77.90"
2024-05-28_13-19-55.255738,"95.77,81.09"
2024-05-28_13-19-55.288478,"74.71,71.44"
2024-05-28_13-19-55.321219,"83.15,79.02"
2024-05-28_13-19-55.349964,"79.94,71.28"
2024-05-28_13-19-55.382725,"87.75,81.64"
2024-05-28_13-19-55.415555,"86.76,68.76"
2024-05-28_13-19-55.448283,"83.79,71.50"
2024-05-28_13-19-55.481011,"69.81,84.46"
2024-05-28_13-19-55.513888,"101.95,87.42"
2024-05-28_13-19-55.546549,"88.90,75.37"
2024-05-28_13-19-55.579190,"64.53,89.97"
2024-05-28_13-19-55.608038,"75.89,72.81"
2024-05-28_13-19-55.640883,"77.96,76.13"
2024-05-28_13-19-55.673526,"94.19,84.63"
2024-05-28_13-19-55.706297,"77.74,70.35"
2024-05-28_13-19-55.739075,"96.98,51.85"
2024-05-28_13-19-55.771778,"69.89,89.86"
2024-05-28_13-19-55.804617,"82.83,81.17"
2024-05-28_13-19-55.833317,"98.47,89.47"
2024-05-28_13-19-55.866054,"85.31,78.03"
