timestamp,EMG
2024-05-28_12-52-36.790833,"93.77,75.27"
2024-05-28_12-52-36.823390,"83.19,62.03"
2024-05-28_12-52-36.856079,"82.64,52.32"
2024-05-28_12-52-36.884944,"81.60,52.95"
2024-05-28_12-52-36.917603,"90.38,80.64"
2024-05-28_12-52-36.950352,"85.19,70.22"
2024-05-28_12-52-36.983268,"96.49,67.42"
2024-05-28_12-52-37.015963,"64.45,58.04"
2024-05-28_12-52-37.048645,"77.16,54.00"
2024-05-28_12-52-37.081350,"66.09,75.32"
2024-05-28_12-52-37.110091,"78.48,76.09"
2024-05-28_12-52-37.142895,"64.97,72.55"
2024-05-28_12-52-37.175620,"74.76,74.04"
2024-05-28_12-52-37.208405,"78.31,80.95"
2024-05-28_12-52-37.241208,"75.87,76.40"
2024-05-28_12-52-37.273884,"82.69,67.01"
2024-05-28_12-52-37.306575,"82.66,79.02"
2024-05-28_12-52-37.335381,"105.94,70.88"
2024-05-28_12-52-37.368105,"70.80,55.81"
2024-05-28_12-52-37.400954,"67.81,58.79"
2024-05-28_12-52-37.433674,"77.86,60.70"
2024-05-28_12-52-37.466438,"94.88,78.37"
2024-05-28_12-52-37.499207,"74.17,81.70"
2024-05-28_12-52-37.531894,"78.04,74.28"
2024-05-28_12-52-37.560661,"81.54,68.38"
2024-05-28_12-52-37.593360,"63.46,69.81"
2024-05-28_12-52-37.626152,"82.29,75.05"
2024-05-28_12-52-37.658959,"94.60,82.11"
2024-05-28_12-52-37.691737,"94.39,54.13"
2024-05-28_12-52-37.724489,"80.88,52.30"
2024-05-28_12-52-37.757189,"60.02,74.25"
2024-05-28_12-52-37.785867,"79.37,68.69"
2024-05-28_12-52-37.818666,"76.78,85.84"
2024-05-28_12-52-37.851503,"84.91,87.47"
2024-05-28_12-52-37.884317,"83.70,75.40"
2024-05-28_12-52-37.916980,"78.50,72.44"
2024-05-28_12-52-37.949720,"75.71,77.72"
2024-05-28_12-52-37.982393,"59.13,78.04"
2024-05-28_12-52-38.011185,"84.55,66.98"
2024-05-28_12-52-38.043916,"79.76,80.30"
2024-05-28_12-52-38.076979,"95.43,55.67"
2024-05-28_12-52-38.109507,"66.05,57.10"
2024-05-28_12-52-38.142261,"78.05,76.33"
2024-05-28_12-52-38.175022,"78.85,76.09"
2024-05-28_12-52-38.207719,"87.95,76.03"
2024-05-28_12-52-38.236435,"75.19,79.79"
2024-05-28_12-52-38.269214,"81.60,77.81"
2024-05-28_12-52-38.301974,"63.19,72.76"
2024-05-28_12-52-38.334788,"67.07,69.59"
2024-05-28_12-52-38.367506,"51.26,75.13"
2024-05-28_12-52-38.400298,"80.61,82.13"
2024-05-28_12-52-38.432969,"84.42,70.14"
2024-05-28_12-52-38.461695,"83.39,50.49"
2024-05-28_12-52-38.494488,"65.16,59.79"
2024-05-28_12-52-38.528180,"82.12,72.99"
2024-05-28_12-52-38.560077,"82.91,85.75"
2024-05-28_12-52-38.592836,"78.83,76.01"
2024-05-28_12-52-38.625512,"76.39,73.01"
2024-05-28_12-52-38.658210,"83.51,75.71"
2024-05-28_12-52-38.690948,"78.12,76.81"
2024-05-28_12-52-38.719774,"59.85,77.34"
2024-05-28_12-52-38.752519,"71.07,66.86"
2024-05-28_12-52-38.785272,"81.75,80.34"
2024-05-28_12-52-38.818017,"98.46,55.05"
2024-05-28_12-52-38.850855,"71.35,56.36"
2024-05-28_12-52-38.883494,"66.24,72.30"
2024-05-28_12-52-38.916210,"76.76,71.59"
2024-05-28_12-52-38.945063,"86.52,76.13"
2024-05-28_12-52-38.977804,"74.66,77.47"
2024-05-28_12-52-39.010501,"80.27,77.13"
2024-05-28_12-52-39.043337,"71.69,74.88"
2024-05-28_12-52-39.076071,"66.04,69.65"
2024-05-28_12-52-39.108862,"52.23,75.14"
2024-05-28_12-52-39.141497,"94.17,82.25"
2024-05-28_12-52-39.170284,"91.00,70.81"
2024-05-28_12-52-39.203079,"78.93,51.66"
2024-05-28_12-52-39.235855,"62.81,64.60"
2024-05-28_12-52-39.268564,"78.62,78.87"
2024-05-28_12-52-39.301353,"86.21,75.88"
2024-05-28_12-52-39.334055,"82.64,69.15"
2024-05-28_12-52-39.366812,"52.08,73.39"
2024-05-28_12-52-39.395583,"68.70,68.51"
2024-05-28_12-52-39.428376,"57.09,78.59"
2024-05-28_12-52-39.461140,"61.51,78.54"
2024-05-28_12-52-39.493884,"82.94,67.03"
2024-05-28_12-52-39.526604,"99.94,80.40"
2024-05-28_12-52-39.559402,"86.96,55.83"
2024-05-28_12-52-39.592062,"67.77,58.53"
2024-05-28_12-52-39.620876,"74.34,80.93"
2024-05-28_12-52-39.653548,"71.15,72.55"
2024-05-28_12-52-39.686336,"87.88,74.54"
2024-05-28_12-52-39.719111,"51.92,80.08"
2024-05-28_12-52-39.751861,"60.12,68.30"
2024-05-28_12-52-39.784597,"56.87,76.78"
2024-05-28_12-52-39.817314,"65.14,69.76"
2024-05-28_12-52-39.846074,"51.34,75.26"
2024-05-28_12-52-39.878849,"100.82,83.52"
2024-05-28_12-52-39.912133,"81.20,54.52"
2024-05-28_12-52-39.944410,"71.77,51.49"
2024-05-28_12-52-39.977148,"87.96,80.64"
2024-05-28_12-52-40.009890,"88.89,75.07"
2024-05-28_12-52-40.042556,"71.48,74.06"
2024-05-28_12-52-40.071321,"74.66,70.94"
2024-05-28_12-52-40.104104,"55.17,77.90"
2024-05-28_12-52-40.136912,"60.85,69.14"
2024-05-28_12-52-40.169638,"75.68,79.80"
2024-05-28_12-52-40.202416,"62.55,79.09"
2024-05-28_12-52-40.235137,"69.96,66.77"
2024-05-28_12-52-40.267847,"94.74,80.54"
2024-05-28_12-52-40.296620,"79.06,57.29"
2024-05-28_12-52-40.329394,"73.37,83.83"
2024-05-28_12-52-40.362159,"84.67,70.70"
2024-05-28_12-52-40.394899,"75.15,75.96"
2024-05-28_12-52-40.427672,"76.94,73.12"
2024-05-28_12-52-40.460490,"52.96,79.22"
2024-05-28_12-52-40.493143,"64.06,71.57"
2024-05-28_12-52-40.521864,"58.02,77.84"
2024-05-28_12-52-40.554646,"66.98,69.49"
2024-05-28_12-52-40.587427,"50.53,75.37"
2024-05-28_12-52-40.620200,"108.45,70.86"
2024-05-28_12-52-40.652944,"72.84,54.89"
2024-05-28_12-52-40.685684,"68.45,75.96"
2024-05-28_12-52-40.718379,"90.39,82.34"
2024-05-28_12-52-40.747185,"89.99,74.38"
2024-05-28_12-52-40.779917,"69.70,74.88"
2024-05-28_12-52-40.812685,"60.07,69.09"
2024-05-28_12-52-40.845445,"55.06,75.10"
2024-05-28_12-52-40.878206,"59.54,68.46"
2024-05-28_12-52-40.910994,"56.77,78.95"
2024-05-28_12-52-40.943682,"61.38,79.14"
2024-05-28_12-52-40.972421,"82.21,67.19"
2024-05-28_12-52-41.005226,"88.50,66.41"
2024-05-28_12-52-41.037959,"70.76,59.86"
2024-05-28_12-52-41.070708,"72.36,86.57"
2024-05-28_12-52-41.103546,"75.01,75.54"
2024-05-28_12-52-41.136308,"70.87,79.21"
2024-05-28_12-52-41.168949,"69.92,72.54"
2024-05-28_12-52-41.197694,"57.03,79.63"
2024-05-28_12-52-41.230461,"45.90,67.63"
2024-05-28_12-52-41.263234,"58.28,76.99"
2024-05-28_12-52-41.295985,"67.29,69.65"
2024-05-28_12-52-41.328772,"69.02,75.56"
2024-05-28_12-52-41.361557,"98.86,70.88"
2024-05-28_12-52-41.394255,"71.43,54.76"
2024-05-28_12-52-41.422937,"73.06,56.22"
2024-05-28_12-52-41.455716,"64.95,82.95"
2024-05-28_12-52-41.488478,"83.50,79.54"
2024-05-28_12-52-41.521304,"82.95,77.30"
2024-05-28_12-52-41.554057,"83.49,70.82"
2024-05-28_12-52-41.586819,"56.94,74.94"
2024-05-28_12-52-41.619467,"60.42,68.95"
2024-05-28_12-52-41.648218,"57.91,79.05"
2024-05-28_12-52-41.680956,"60.96,78.86"
2024-05-28_12-52-41.713723,"92.05,67.45"
2024-05-28_12-52-41.746513,"96.37,66.96"
2024-05-28_12-52-41.779347,"70.49,59.39"
2024-05-28_12-52-41.812046,"72.32,63.47"
2024-05-28_12-52-41.844742,"72.58,74.22"
2024-05-28_12-52-41.873482,"85.18,82.15"
2024-05-28_12-52-41.906255,"70.88,72.16"
2024-05-28_12-52-41.939015,"56.91,79.69"
2024-05-28_12-52-41.971880,"49.89,68.11"
2024-05-28_12-52-42.004823,"74.66,77.72"
2024-05-28_12-52-42.037389,"86.82,70.86"
2024-05-28_12-52-42.070020,"67.34,76.31"
2024-05-28_12-52-42.098794,"94.98,82.70"
2024-05-28_12-52-42.131524,"71.55,55.38"
2024-05-28_12-52-42.164283,"70.37,70.26"
2024-05-28_12-52-42.197078,"80.28,81.86"
2024-05-28_12-52-42.229837,"86.37,79.47"
2024-05-28_12-52-42.262616,"73.14,72.16"
2024-05-28_12-52-42.295321,"77.23,69.87"
2024-05-28_12-52-42.327998,"35.52,73.63"
2024-05-28_12-52-42.357192,"63.52,67.89"
2024-05-28_12-52-42.389574,"58.42,78.74"
2024-05-28_12-52-42.422343,"61.40,78.69"
2024-05-28_12-52-42.455088,"88.82,67.56"
2024-05-28_12-52-42.487854,"83.56,66.52"
2024-05-28_12-52-42.520595,"66.43,61.13"
2024-05-28_12-52-42.553298,"74.09,60.36"
2024-05-28_12-52-42.582093,"72.55,85.33"
2024-05-28_12-52-42.614856,"86.78,65.50"
2024-05-28_12-52-42.647591,"81.22,71.61"
2024-05-28_12-52-42.680340,"60.61,79.64"
2024-05-28_12-52-42.713128,"53.88,67.48"
2024-05-28_12-52-42.745877,"59.71,76.68"
2024-05-28_12-52-42.778565,"69.23,69.82"
2024-05-28_12-52-42.807337,"67.66,75.17"
2024-05-28_12-52-42.840123,"91.40,70.40"
2024-05-28_12-52-42.872847,"62.47,55.94"
2024-05-28_12-52-42.905631,"65.60,75.10"
2024-05-28_12-52-42.938373,"82.29,87.39"
2024-05-28_12-52-42.971115,"90.62,68.19"
2024-05-28_12-52-43.003814,"65.23,72.10"
2024-05-28_12-52-43.032595,"69.23,67.91"
2024-05-28_12-52-43.065404,"37.57,74.88"
2024-05-28_12-52-43.098117,"66.92,69.55"
2024-05-28_12-52-43.130879,"60.13,79.98"
2024-05-28_12-52-43.163630,"89.31,79.38"
2024-05-28_12-52-43.196401,"88.05,67.54"
2024-05-28_12-52-43.229095,"90.95,49.33"
2024-05-28_12-52-43.257875,"67.69,80.28"
2024-05-28_12-52-43.290634,"96.39,68.45"
2024-05-28_12-52-43.323390,"75.15,81.23"
2024-05-28_12-52-43.356160,"81.13,73.32"
2024-05-28_12-52-43.388941,"55.99,72.56"
2024-05-28_12-52-43.421666,"60.11,79.91"
2024-05-28_12-52-43.454358,"56.06,67.95"
2024-05-28_12-52-43.483116,"57.38,76.69"
2024-05-28_12-52-43.515958,"70.58,70.30"
2024-05-28_12-52-43.548666,"92.46,76.63"
2024-05-28_12-52-43.581506,"97.58,70.72"
2024-05-28_12-52-43.614222,"66.52,56.04"
2024-05-28_12-52-43.646915,"66.20,75.15"
2024-05-28_12-52-43.679614,"90.20,82.98"
2024-05-28_12-52-43.708459,"83.37,70.44"
2024-05-28_12-52-43.741191,"63.16,72.61"
2024-05-28_12-52-43.773948,"67.92,68.24"
2024-05-28_12-52-43.806742,"37.97,74.58"
2024-05-28_12-52-43.839503,"62.15,68.22"
2024-05-28_12-52-43.872177,"58.27,78.44"
2024-05-28_12-52-43.904886,"61.41,78.33"
2024-05-28_12-52-43.933695,"90.89,67.11"
2024-05-28_12-52-43.966432,"84.89,66.66"
2024-05-28_12-52-43.999225,"67.08,60.55"
2024-05-28_12-52-44.031995,"72.29,60.17"
2024-05-28_12-52-44.064725,"85.64,76.45"
2024-05-28_12-52-44.097488,"83.42,73.97"
2024-05-28_12-52-44.130180,"84.50,77.18"
2024-05-28_12-52-44.158924,"41.56,79.23"
2024-05-28_12-52-44.191684,"56.66,67.57"
2024-05-28_12-52-44.224455,"60.75,77.58"
2024-05-28_12-52-44.257246,"82.44,70.26"
2024-05-28_12-52-44.290000,"91.00,76.66"
2024-05-28_12-52-44.322746,"102.68,55.66"
2024-05-28_12-52-44.355441,"59.21,57.38"
2024-05-28_12-52-44.384188,"63.96,75.91"
2024-05-28_12-52-44.416947,"81.72,87.54"
2024-05-28_12-52-44.449722,"83.73,87.31"
2024-05-28_12-52-44.482502,"97.77,79.89"
2024-05-28_12-52-44.515282,"84.93,68.53"
2024-05-28_12-52-44.548028,"97.54,79.98"
2024-05-28_12-52-44.580748,"81.04,71.30"
2024-05-28_12-52-44.609531,"94.46,69.67"
2024-05-28_12-52-44.642255,"106.42,53.79"
2024-05-28_12-52-44.675033,"94.70,51.23"
2024-05-28_12-52-44.707825,"71.19,55.48"
2024-05-28_12-52-44.740527,"61.12,78.63"
2024-05-28_12-52-44.773297,"80.86,79.80"
2024-05-28_12-52-44.806180,"90.41,86.15"
2024-05-28_12-52-44.834794,"76.51,81.96"
2024-05-28_12-52-44.867528,"88.47,82.91"
2024-05-28_12-52-44.900284,"102.40,84.00"
2024-05-28_12-52-44.933020,"82.90,53.39"
2024-05-28_12-52-44.965834,"103.31,51.85"
2024-05-28_12-52-44.998585,"95.07,56.77"
2024-05-28_12-52-45.031307,"98.16,46.53"
2024-05-28_12-52-45.060000,"85.57,59.48"
2024-05-28_12-52-45.092853,"58.30,57.37"
2024-05-28_12-52-45.125579,"76.12,87.19"
2024-05-28_12-52-45.158291,"91.14,75.06"
2024-05-28_12-52-45.191228,"87.31,87.64"
2024-05-28_12-52-45.223837,"90.53,84.40"
2024-05-28_12-52-45.256554,"81.95,69.44"
2024-05-28_12-52-45.285270,"95.79,67.33"
2024-05-28_12-52-45.318049,"101.98,55.55"
2024-05-28_12-52-45.351042,"92.04,53.05"
2024-05-28_12-52-45.383626,"103.01,53.83"
2024-05-28_12-52-45.416335,"82.53,78.84"
2024-05-28_12-52-45.449107,"91.10,71.17"
2024-05-28_12-52-45.482032,"81.78,64.74"
2024-05-28_12-52-45.510502,"80.96,90.04"
2024-05-28_12-52-45.543306,"83.57,90.67"
2024-05-28_12-52-45.576089,"86.08,101.86"
2024-05-28_12-52-45.608842,"77.50,83.80"
2024-05-28_12-52-45.641673,"69.41,80.27"
2024-05-28_12-52-45.674358,"63.98,80.33"
2024-05-28_12-52-45.707090,"80.45,70.16"
2024-05-28_12-52-45.735817,"76.98,73.84"
2024-05-28_12-52-45.768571,"83.43,79.91"
2024-05-28_12-52-45.801350,"110.61,69.24"
2024-05-28_12-52-45.834124,"92.91,70.80"
2024-05-28_12-52-45.866877,"86.09,68.95"
2024-05-28_12-52-45.899678,"83.82,102.64"
2024-05-28_12-52-45.932349,"72.61,97.02"
2024-05-28_12-52-45.961076,"88.53,92.95"
2024-05-28_12-52-45.993834,"76.62,84.72"
2024-05-28_12-52-46.026616,"67.01,83.44"
2024-05-28_12-52-46.059389,"106.19,70.13"
2024-05-28_12-52-46.092215,"108.71,55.99"
2024-05-28_12-52-46.124927,"87.34,55.60"
2024-05-28_12-52-46.157626,"88.34,84.75"
2024-05-28_12-52-46.190322,"83.38,71.62"
2024-05-28_12-52-46.219106,"94.01,66.94"
2024-05-28_12-52-46.251875,"81.33,102.14"
2024-05-28_12-52-46.284670,"89.57,88.66"
2024-05-28_12-52-46.317421,"79.99,101.85"
2024-05-28_12-52-46.350172,"88.17,94.64"
2024-05-28_12-52-46.382946,"102.71,82.84"
2024-05-28_12-52-46.415558,"88.68,64.67"
2024-05-28_12-52-46.444360,"113.19,67.21"
2024-05-28_12-52-46.477154,"107.97,59.84"
2024-05-28_12-52-46.509929,"82.59,63.51"
2024-05-28_12-52-46.542692,"89.31,72.09"
2024-05-28_12-52-46.575443,"79.72,65.75"
2024-05-28_12-52-46.608185,"74.40,65.51"
2024-05-28_12-52-46.640837,"84.36,99.90"
2024-05-28_12-52-46.669681,"74.50,89.70"
2024-05-28_12-52-46.702417,"88.69,86.59"
2024-05-28_12-52-46.735175,"83.83,53.70"
2024-05-28_12-52-46.767951,"88.78,55.00"
2024-05-28_12-52-46.800702,"99.52,60.21"
2024-05-28_12-52-46.833443,"89.17,53.95"
2024-05-28_12-52-46.866127,"104.01,58.03"
2024-05-28_12-52-46.894899,"88.69,77.78"
2024-05-28_12-52-46.927708,"69.85,61.57"
2024-05-28_12-52-46.960418,"88.23,68.01"
2024-05-28_12-52-46.993271,"70.97,58.15"
2024-05-28_12-52-47.025955,"68.40,95.35"
2024-05-28_12-52-47.058736,"78.67,78.47"
2024-05-28_12-52-47.091430,"84.82,70.59"
2024-05-28_12-52-47.120208,"97.46,57.50"
2024-05-28_12-52-47.152953,"87.00,61.86"
2024-05-28_12-52-47.185793,"112.83,63.84"
2024-05-28_12-52-47.218560,"88.91,71.61"
2024-05-28_12-52-47.251344,"76.17,83.21"
2024-05-28_12-52-47.283964,"79.75,63.07"
2024-05-28_12-52-47.316688,"87.87,72.40"
2024-05-28_12-52-47.345484,"77.63,83.11"
2024-05-28_12-52-47.378245,"66.96,76.59"
2024-05-28_12-52-47.411011,"81.58,88.89"
2024-05-28_12-52-47.443776,"87.05,72.70"
2024-05-28_12-52-47.476543,"87.18,52.12"
2024-05-28_12-52-47.509280,"88.08,52.33"
2024-05-28_12-52-47.541977,"97.75,56.60"
2024-05-28_12-52-47.570722,"89.81,53.25"
2024-05-28_12-52-47.603466,"95.11,68.87"
2024-05-28_12-52-47.636271,"79.84,53.58"
2024-05-28_12-52-47.669002,"69.99,68.02"
2024-05-28_12-52-47.701828,"83.82,81.60"
2024-05-28_12-52-47.734542,"88.43,77.57"
2024-05-28_12-52-47.767217,"79.73,90.24"
2024-05-28_12-52-47.795973,"78.38,76.03"
2024-05-28_12-52-47.828806,"82.77,52.32"
2024-05-28_12-52-47.861506,"99.50,56.78"
2024-05-28_12-52-47.894289,"89.10,64.14"
2024-05-28_12-52-47.927030,"94.67,64.65"
2024-05-28_12-52-47.959845,"101.91,59.28"
2024-05-28_12-52-47.992502,"90.02,76.99"
2024-05-28_12-52-48.021273,"67.60,68.18"
2024-05-28_12-52-48.054007,"86.64,66.93"
2024-05-28_12-52-48.086970,"86.59,91.85"
2024-05-28_12-52-48.119619,"71.56,86.34"
2024-05-28_12-52-48.152337,"77.68,86.86"
2024-05-28_12-52-48.185187,"88.83,57.19"
2024-05-28_12-52-48.217796,"86.16,52.27"
2024-05-28_12-52-48.246540,"89.90,52.62"
2024-05-28_12-52-48.279292,"91.56,61.25"
2024-05-28_12-52-48.312067,"90.10,53.96"
2024-05-28_12-52-48.344808,"83.22,69.07"
2024-05-28_12-52-48.377611,"76.56,62.43"
2024-05-28_12-52-48.410363,"79.68,78.86"
2024-05-28_12-52-48.443061,"86.15,71.81"
2024-05-28_12-52-48.471867,"76.55,81.89"
2024-05-28_12-52-48.504629,"76.77,70.88"
2024-05-28_12-52-48.537326,"96.32,74.86"
2024-05-28_12-52-48.570110,"88.82,57.38"
2024-05-28_12-52-48.602848,"101.54,60.41"
2024-05-28_12-52-48.635673,"101.73,55.31"
2024-05-28_12-52-48.668329,"93.05,76.11"
2024-05-28_12-52-48.697069,"93.20,48.17"
2024-05-28_12-52-48.729872,"57.14,75.94"
2024-05-28_12-52-48.762644,"90.09,63.20"
2024-05-28_12-52-48.795348,"88.26,64.13"
2024-05-28_12-52-48.828184,"73.40,97.59"
2024-05-28_12-52-48.860852,"76.21,84.05"
2024-05-28_12-52-48.893583,"87.79,73.38"
2024-05-28_12-52-48.922356,"92.96,55.88"
2024-05-28_12-52-48.955082,"83.16,58.66"
2024-05-28_12-52-48.987887,"101.35,71.71"
2024-05-28_12-52-49.020641,"103.39,68.64"
2024-05-28_12-52-49.053416,"96.96,56.79"
2024-05-28_12-52-49.086159,"68.71,57.72"
2024-05-28_12-52-49.118867,"70.48,62.48"
2024-05-28_12-52-49.147595,"81.68,80.12"
2024-05-28_12-52-49.180376,"76.98,82.41"
2024-05-28_12-52-49.213105,"66.67,81.05"
2024-05-28_12-52-49.245955,"86.38,75.87"
2024-05-28_12-52-49.278668,"82.00,58.25"
2024-05-28_12-52-49.311428,"85.52,48.81"
2024-05-28_12-52-49.344199,"105.26,56.07"
2024-05-28_12-52-49.372873,"78.42,57.15"
2024-05-28_12-52-49.405638,"101.86,76.88"
2024-05-28_12-52-49.438406,"80.50,79.14"
2024-05-28_12-52-49.471158,"68.68,69.48"
2024-05-28_12-52-49.504000,"83.07,80.80"
2024-05-28_12-52-49.536709,"81.98,56.82"
2024-05-28_12-52-49.569395,"82.65,93.82"
2024-05-28_12-52-49.598115,"83.51,80.24"
2024-05-28_12-52-49.630917,"93.29,72.06"
2024-05-28_12-52-49.663665,"92.72,52.96"
2024-05-28_12-52-49.696452,"89.64,50.81"
2024-05-28_12-52-49.729226,"89.92,53.35"
2024-05-28_12-52-49.762007,"89.67,57.87"
2024-05-28_12-52-49.794697,"98.79,54.83"
2024-05-28_12-52-49.823391,"80.40,56.45"
2024-05-28_12-52-49.856158,"76.47,55.99"
2024-05-28_12-52-49.888979,"76.23,84.63"
2024-05-28_12-52-49.921742,"85.18,97.80"
2024-05-28_12-52-49.954472,"78.41,81.76"
2024-05-28_12-52-49.987212,"94.70,86.21"
2024-05-28_12-52-50.019963,"84.96,56.64"
2024-05-28_12-52-50.048883,"84.91,49.50"
2024-05-28_12-52-50.081681,"93.29,58.94"
2024-05-28_12-52-50.114263,"97.56,60.46"
2024-05-28_12-52-50.146990,"104.09,60.49"
2024-05-28_12-52-50.179712,"87.12,58.66"
2024-05-28_12-52-50.212493,"67.29,56.85"
2024-05-28_12-52-50.245204,"72.13,75.15"
2024-05-28_12-52-50.277906,"88.79,79.18"
2024-05-28_12-52-50.306695,"75.24,93.99"
2024-05-28_12-52-50.339488,"91.07,79.15"
2024-05-28_12-52-50.372247,"82.82,71.25"
2024-05-28_12-52-50.405012,"93.17,53.14"
2024-05-28_12-52-50.437810,"93.32,51.05"
2024-05-28_12-52-50.470502,"90.29,53.46"
2024-05-28_12-52-50.503186,"89.63,57.71"
2024-05-28_12-52-50.531991,"83.00,56.45"
2024-05-28_12-52-50.564757,"73.91,58.45"
2024-05-28_12-52-50.597501,"68.87,66.27"
2024-05-28_12-52-50.630282,"71.65,79.34"
2024-05-28_12-52-50.663047,"88.47,95.74"
2024-05-28_12-52-50.695804,"86.14,77.07"
2024-05-28_12-52-50.728476,"90.96,55.11"
2024-05-28_12-52-50.757245,"87.90,56.56"
2024-05-28_12-52-50.790066,"88.99,46.79"
2024-05-28_12-52-50.822798,"103.06,57.60"
2024-05-28_12-52-50.855559,"93.79,54.64"
2024-05-28_12-52-50.888298,"94.12,56.11"
2024-05-28_12-52-50.921063,"66.31,86.53"
2024-05-28_12-52-50.953881,"83.98,72.77"
2024-05-28_12-52-50.982575,"84.86,84.80"
2024-05-28_12-52-51.015267,"72.45,85.58"
2024-05-28_12-52-51.048046,"83.57,88.84"
2024-05-28_12-52-51.080795,"89.58,59.45"
2024-05-28_12-52-51.113557,"87.00,53.67"
2024-05-28_12-52-51.146320,"95.49,53.39"
2024-05-28_12-52-51.179017,"92.95,51.18"
2024-05-28_12-52-51.207801,"78.70,54.29"
2024-05-28_12-52-51.240569,"106.50,58.89"
2024-05-28_12-52-51.273264,"69.10,56.79"
2024-05-28_12-52-51.306113,"80.25,62.45"
2024-05-28_12-52-51.338832,"76.05,64.47"
2024-05-28_12-52-51.371620,"74.86,94.01"
2024-05-28_12-52-51.404263,"84.16,94.38"
2024-05-28_12-52-51.433063,"75.66,57.50"
2024-05-28_12-52-51.465815,"91.10,54.50"
2024-05-28_12-52-51.498596,"88.82,57.02"
2024-05-28_12-52-51.531330,"90.02,47.00"
2024-05-28_12-52-51.564169,"94.28,57.71"
2024-05-28_12-52-51.596823,"81.01,55.45"
2024-05-28_12-52-51.629551,"81.59,56.37"
2024-05-28_12-52-51.658308,"75.93,80.99"
2024-05-28_12-52-51.691084,"81.64,87.17"
2024-05-28_12-52-51.723853,"85.92,81.88"
2024-05-28_12-52-51.763432,"83.81,75.88"
2024-05-28_12-52-51.794788,"73.94,57.25"
2024-05-28_12-52-51.822155,"92.78,87.61"
2024-05-28_12-52-51.854885,"104.24,58.11"
2024-05-28_12-52-51.883628,"100.30,53.66"
2024-05-28_12-52-51.916391,"85.43,51.15"
2024-05-28_12-52-51.949127,"88.17,55.58"
2024-05-28_12-52-51.981891,"75.39,54.10"
2024-05-28_12-52-52.014692,"68.04,73.74"
2024-05-28_12-52-52.047401,"72.24,72.38"
2024-05-28_12-52-52.080150,"90.41,83.68"
2024-05-28_12-52-52.108904,"80.25,87.52"
2024-05-28_12-52-52.142761,"89.73,61.82"
2024-05-28_12-52-52.174404,"80.85,54.87"
2024-05-28_12-52-52.207185,"97.18,52.89"
2024-05-28_12-52-52.239915,"83.64,57.32"
2024-05-28_12-52-52.272664,"98.90,47.59"
2024-05-28_12-52-52.305359,"97.72,59.28"
2024-05-28_12-52-52.334156,"61.65,57.51"
2024-05-28_12-52-52.366934,"78.77,73.14"
2024-05-28_12-52-52.399699,"76.80,95.82"
2024-05-28_12-52-52.432409,"70.01,82.41"
2024-05-28_12-52-52.465181,"87.32,87.24"
2024-05-28_12-52-52.497941,"84.59,54.92"
2024-05-28_12-52-52.530632,"87.07,53.60"
2024-05-28_12-52-52.559448,"97.77,56.58"
2024-05-28_12-52-52.592364,"88.81,53.93"
2024-05-28_12-52-52.624995,"100.73,51.80"
2024-05-28_12-52-52.657748,"79.31,54.36"
2024-05-28_12-52-52.690508,"72.51,60.03"
2024-05-28_12-52-52.723211,"72.85,73.40"
2024-05-28_12-52-52.755914,"77.94,83.22"
2024-05-28_12-52-52.784636,"89.62,86.89"
2024-05-28_12-52-52.817403,"77.62,81.13"
2024-05-28_12-52-52.850229,"91.80,82.60"
2024-05-28_12-52-52.883048,"104.42,56.31"
2024-05-28_12-52-52.915762,"86.41,53.99"
2024-05-28_12-52-52.948451,"106.01,53.41"
2024-05-28_12-52-52.981197,"97.51,56.97"
2024-05-28_12-52-53.009987,"97.57,47.22"
2024-05-28_12-52-53.042702,"78.37,60.25"
2024-05-28_12-52-53.075471,"70.29,61.03"
2024-05-28_12-52-53.108247,"77.09,77.74"
2024-05-28_12-52-53.141014,"83.68,87.37"
2024-05-28_12-52-53.173823,"80.15,86.49"
2024-05-28_12-52-53.208857,"93.05,82.70"
2024-05-28_12-52-53.235271,"94.88,68.99"
2024-05-28_12-52-53.267968,"98.98,51.91"
2024-05-28_12-52-53.300777,"106.70,56.71"
2024-05-28_12-52-53.333488,"102.53,54.10"
2024-05-28_12-52-53.366315,"94.07,54.69"
2024-05-28_12-52-53.399050,"68.27,56.05"
2024-05-28_12-52-53.431792,"63.49,58.47"
2024-05-28_12-52-53.460461,"83.07,93.35"
2024-05-28_12-52-53.493232,"93.71,84.11"
2024-05-28_12-52-53.526006,"82.93,84.65"
2024-05-28_12-52-53.558830,"89.79,75.85"
2024-05-28_12-52-53.593002,"96.54,64.78"
2024-05-28_12-52-53.624389,"110.05,56.68"
2024-05-28_12-52-53.657012,"88.25,54.37"
2024-05-28_12-52-53.690345,"103.91,53.46"
2024-05-28_12-52-53.723361,"92.97,65.81"
2024-05-28_12-52-53.751324,"70.90,85.70"
2024-05-28_12-52-53.784100,"71.11,75.21"
2024-05-28_12-52-53.816863,"76.66,72.21"
2024-05-28_12-52-53.849691,"79.98,94.23"
2024-05-28_12-52-53.882295,"78.18,88.90"
2024-05-28_12-52-53.915121,"90.55,85.02"
2024-05-28_12-52-53.943843,"83.06,80.39"
2024-05-28_12-52-53.976572,"85.78,51.85"
2024-05-28_12-52-54.009578,"90.40,52.82"
2024-05-28_12-52-54.042176,"95.37,57.47"
2024-05-28_12-52-54.074908,"77.01,56.09"
2024-05-28_12-52-54.107589,"72.52,84.34"
2024-05-28_12-52-54.140245,"77.82,69.19"
2024-05-28_12-52-54.173458,"89.35,88.39"
2024-05-28_12-52-54.215576,"66.63,94.96"
2024-05-28_12-52-54.235778,"62.47,87.27"
2024-05-28_12-52-54.271095,"91.05,86.53"
2024-05-28_12-52-54.300361,"92.83,58.16"
2024-05-28_12-52-54.332822,"97.77,46.83"
2024-05-28_12-52-54.365586,"93.23,55.95"
2024-05-28_12-52-54.394341,"92.69,54.44"
2024-05-28_12-52-54.427127,"78.06,53.72"
2024-05-28_12-52-54.459878,"59.84,69.13"
2024-05-28_12-52-54.493291,"79.88,86.28"
2024-05-28_12-52-54.525587,"81.28,92.38"
2024-05-28_12-52-54.567411,"81.03,91.45"
2024-05-28_12-52-54.592225,"75.57,86.05"
2024-05-28_12-52-54.619620,"71.34,75.20"
2024-05-28_12-52-54.653856,"87.12,81.02"
2024-05-28_12-52-54.685169,"98.36,68.07"
2024-05-28_12-52-54.717899,"104.12,51.62"
2024-05-28_12-52-54.750691,"83.56,53.84"
2024-05-28_12-52-54.783402,"66.28,63.51"
2024-05-28_12-52-54.816063,"79.73,82.85"
2024-05-28_12-52-54.844830,"84.20,87.40"
2024-05-28_12-52-54.877592,"81.10,83.41"
2024-05-28_12-52-54.910341,"96.18,87.91"
2024-05-28_12-52-54.943081,"99.41,85.22"
2024-05-28_12-52-54.975893,"85.96,70.46"
2024-05-28_12-52-55.008650,"106.81,51.94"
2024-05-28_12-52-55.041359,"87.79,56.35"
2024-05-28_12-52-55.070261,"107.24,46.61"
2024-05-28_12-52-55.103039,"80.73,61.10"
2024-05-28_12-52-55.135624,"57.06,58.82"
2024-05-28_12-52-55.168383,"77.01,77.88"
2024-05-28_12-52-55.201184,"87.31,93.94"
2024-05-28_12-52-55.233932,"97.77,80.27"
2024-05-28_12-52-55.266595,"97.24,81.37"
2024-05-28_12-52-55.295372,"93.36,68.81"
2024-05-28_12-52-55.328162,"100.28,68.67"
2024-05-28_12-52-55.360923,"106.27,56.70"
2024-05-28_12-52-55.393740,"99.24,54.17"
2024-05-28_12-52-55.426444,"86.69,56.08"
2024-05-28_12-52-55.464735,"63.20,55.37"
2024-05-28_12-52-55.491994,"74.02,95.17"
2024-05-28_12-52-55.520709,"80.91,93.95"
2024-05-28_12-52-55.553456,"80.07,79.23"
2024-05-28_12-52-55.587905,"93.16,82.53"
2024-05-28_12-52-55.618978,"94.67,71.44"
2024-05-28_12-52-55.651757,"98.51,78.05"
2024-05-28_12-52-55.684530,"111.53,56.06"
2024-05-28_12-52-55.717147,"87.51,53.94"
2024-05-28_12-52-55.745916,"96.86,54.36"
2024-05-28_12-52-55.778727,"67.76,58.81"
2024-05-28_12-52-55.811466,"73.96,60.10"
2024-05-28_12-52-55.844258,"74.65,94.52"
2024-05-28_12-52-55.876984,"93.16,79.48"
2024-05-28_12-52-55.909791,"85.61,87.29"
2024-05-28_12-52-55.942422,"95.85,73.49"
2024-05-28_12-52-55.971207,"93.35,82.17"
2024-05-28_12-52-56.003949,"106.25,52.35"
2024-05-28_12-52-56.036745,"97.27,51.19"
2024-05-28_12-52-56.069580,"101.52,53.07"
2024-05-28_12-52-56.102353,"81.93,59.81"
2024-05-28_12-52-56.135077,"62.99,86.83"
2024-05-28_12-52-56.167773,"75.79,78.57"
2024-05-28_12-52-56.196406,"83.00,85.34"
2024-05-28_12-52-56.229237,"98.07,92.46"
2024-05-28_12-52-56.261991,"98.60,85.15"
2024-05-28_12-52-56.294794,"82.88,70.94"
2024-05-28_12-52-56.327514,"106.34,68.42"
2024-05-28_12-52-56.360261,"96.67,56.43"
2024-05-28_12-52-56.392983,"104.67,46.53"
2024-05-28_12-52-56.421692,"94.81,57.53"
2024-05-28_12-52-56.457218,"57.74,58.33"
2024-05-28_12-52-56.487501,"63.32,83.12"
2024-05-28_12-52-56.520296,"85.36,87.56"
2024-05-28_12-52-56.552822,"73.65,90.26"
2024-05-28_12-52-56.585534,"92.34,85.28"
2024-05-28_12-52-56.618250,"91.14,70.82"
2024-05-28_12-52-56.647034,"98.77,80.93"
2024-05-28_12-52-56.679765,"104.38,56.10"
2024-05-28_12-52-56.712533,"94.06,53.62"
2024-05-28_12-52-56.745323,"106.06,53.42"
2024-05-28_12-52-56.778139,"75.45,54.23"
2024-05-28_12-52-56.812973,"64.43,81.76"
2024-05-28_12-52-56.843532,"83.93,94.69"
2024-05-28_12-52-56.872248,"82.82,85.64"
2024-05-28_12-52-56.905029,"85.30,80.44"
2024-05-28_12-52-56.937792,"88.50,74.23"
2024-05-28_12-52-56.970733,"96.61,77.75"
2024-05-28_12-52-57.003459,"109.33,72.02"
2024-05-28_12-52-57.036121,"87.19,54.06"
2024-05-28_12-52-57.068800,"104.05,53.84"
2024-05-28_12-52-57.101433,"85.55,57.21"
2024-05-28_12-52-57.130336,"69.76,50.45"
2024-05-28_12-52-57.163039,"73.13,84.59"
2024-05-28_12-52-57.195854,"83.15,79.85"
2024-05-28_12-52-57.228725,"95.80,83.55"
2024-05-28_12-52-57.261405,"86.08,83.93"
2024-05-28_12-52-57.294078,"92.29,81.53"
2024-05-28_12-52-57.326745,"105.71,68.13"
2024-05-28_12-52-57.355539,"98.23,51.41"
2024-05-28_12-52-57.388470,"98.61,52.96"
2024-05-28_12-52-57.421216,"98.57,59.34"
2024-05-28_12-52-57.453907,"65.97,56.75"
2024-05-28_12-52-57.486643,"75.70,87.50"
2024-05-28_12-52-57.519350,"82.12,78.23"
2024-05-28_12-52-57.552050,"87.15,94.54"
2024-05-28_12-52-57.580836,"98.35,89.56"
2024-05-28_12-52-57.613592,"90.27,72.41"
2024-05-28_12-52-57.646355,"105.04,67.88"
2024-05-28_12-52-57.679130,"96.07,56.58"
2024-05-28_12-52-57.711875,"99.15,47.11"
2024-05-28_12-52-57.745273,"103.28,57.75"
2024-05-28_12-52-57.777594,"61.81,57.89"
2024-05-28_12-52-57.806147,"70.05,76.76"
2024-05-28_12-52-57.838869,"83.26,89.45"
2024-05-28_12-52-57.871596,"78.02,91.13"
2024-05-28_12-52-57.904431,"95.83,88.50"
2024-05-28_12-52-57.937143,"88.67,73.09"
2024-05-28_12-52-57.969854,"97.08,67.80"
2024-05-28_12-52-58.002541,"105.69,56.37"
2024-05-28_12-52-58.031424,"95.81,53.92"
2024-05-28_12-52-58.064322,"102.37,54.23"
2024-05-28_12-52-58.096913,"71.41,55.37"
2024-05-28_12-52-58.129638,"64.73,57.84"
2024-05-28_12-52-58.162446,"80.32,96.53"
2024-05-28_12-52-58.195151,"83.13,87.63"
2024-05-28_12-52-58.227832,"86.00,81.98"
2024-05-28_12-52-58.256625,"96.18,71.59"
2024-05-28_12-52-58.289385,"96.68,64.25"
2024-05-28_12-52-58.322169,"112.52,56.48"
2024-05-28_12-52-58.354926,"88.22,54.37"
2024-05-28_12-52-58.387687,"111.99,53.40"
2024-05-28_12-52-58.420423,"78.06,57.26"
2024-05-28_12-52-58.453122,"65.09,52.82"
2024-05-28_12-52-58.481866,"70.91,79.06"
2024-05-28_12-52-58.514770,"81.57,78.64"
2024-05-28_12-52-58.547470,"96.74,82.34"
2024-05-28_12-52-58.580189,"91.15,77.50"
2024-05-28_12-52-58.612959,"93.08,81.60"
2024-05-28_12-52-58.645765,"107.29,69.00"
2024-05-28_12-52-58.678390,"86.59,51.23"
2024-05-28_12-52-58.707160,"97.42,52.82"
2024-05-28_12-52-58.739975,"90.58,58.38"
2024-05-28_12-52-58.772987,"65.05,57.26"
2024-05-28_12-52-58.805516,"80.51,63.28"
2024-05-28_12-52-58.838243,"74.47,82.71"
2024-05-28_12-52-58.871017,"100.19,91.51"
2024-05-28_12-52-58.903734,"98.45,80.67"
2024-05-28_12-52-58.932437,"80.27,55.41"
2024-05-28_12-52-58.965232,"98.17,52.48"
2024-05-28_12-52-58.997968,"84.51,57.82"
2024-05-28_12-52-59.031030,"93.48,46.99"
2024-05-28_12-52-59.063625,"72.76,69.12"
2024-05-28_12-52-59.096300,"69.12,74.97"
2024-05-28_12-52-59.128958,"74.40,76.19"
2024-05-28_12-52-59.160474,"94.48,85.16"
2024-05-28_12-52-59.190517,"91.40,85.94"
2024-05-28_12-52-59.223199,"87.16,56.64"
2024-05-28_12-52-59.256006,"89.66,51.82"
2024-05-28_12-52-59.288762,"90.16,52.57"
2024-05-28_12-52-59.321537,"101.30,57.20"
2024-05-28_12-52-59.354221,"94.17,54.34"
2024-05-28_12-52-59.382956,"83.37,56.52"
2024-05-28_12-52-59.415809,"69.60,64.59"
2024-05-28_12-52-59.448550,"70.40,82.26"
2024-05-28_12-52-59.481325,"84.69,79.40"
2024-05-28_12-52-59.514042,"71.67,81.94"
2024-05-28_12-52-59.546796,"90.80,72.17"
2024-05-28_12-52-59.579507,"86.67,57.33"
2024-05-28_12-52-59.608270,"88.10,47.50"
2024-05-28_12-52-59.641056,"95.84,57.72"
2024-05-28_12-52-59.673828,"80.00,54.82"
2024-05-28_12-52-59.706529,"90.24,57.11"
2024-05-28_12-52-59.739301,"65.88,55.38"
2024-05-28_12-52-59.772131,"81.35,87.92"
2024-05-28_12-52-59.804767,"81.26,100.64"
2024-05-28_12-52-59.833545,"81.67,80.84"
2024-05-28_12-52-59.866278,"82.68,86.02"
2024-05-28_12-52-59.899035,"92.82,57.00"
2024-05-28_12-52-59.931822,"87.23,53.65"
2024-05-28_12-52-59.964579,"98.42,54.17"
2024-05-28_12-52-59.997330,"84.46,51.55"
2024-05-28_12-53-00.030055,"86.89,55.51"
2024-05-28_12-53-00.058782,"74.29,54.26"
2024-05-28_12-53-00.091623,"80.39,72.63"
2024-05-28_12-53-00.124366,"70.35,81.48"
2024-05-28_12-53-00.157066,"72.07,72.20"
2024-05-28_12-53-00.189822,"90.29,84.51"
2024-05-28_12-53-00.222594,"98.88,57.60"
2024-05-28_12-53-00.255363,"81.96,54.16"
2024-05-28_12-53-00.288009,"100.03,53.49"
2024-05-28_12-53-00.316797,"96.05,57.27"
2024-05-28_12-53-00.349559,"88.37,48.27"
2024-05-28_12-53-00.382344,"76.22,67.73"
2024-05-28_12-53-00.415182,"77.71,69.40"
2024-05-28_12-53-00.447874,"74.72,81.86"
2024-05-28_12-53-00.480577,"72.49,95.73"
2024-05-28_12-53-00.513280,"88.03,84.95"
2024-05-28_12-53-00.542048,"92.70,52.93"
2024-05-28_12-53-00.574882,"89.87,51.09"
2024-05-28_12-53-00.607647,"90.75,52.97"
2024-05-28_12-53-00.640372,"101.06,57.37"
2024-05-28_12-53-00.673190,"94.31,54.78"
2024-05-28_12-53-00.705852,"82.60,54.93"
2024-05-28_12-53-00.738543,"70.15,68.77"
2024-05-28_12-53-00.767412,"84.79,101.19"
2024-05-28_12-53-00.800101,"85.69,94.23"
2024-05-28_12-53-00.832864,"73.70,78.29"
2024-05-28_12-53-00.865637,"90.57,57.04"
2024-05-28_12-53-00.898411,"88.63,56.88"
2024-05-28_12-53-00.931140,"89.90,47.32"
2024-05-28_12-53-00.963918,"107.30,57.42"
2024-05-28_12-53-00.992633,"88.10,55.17"
2024-05-28_12-53-01.025363,"82.95,56.76"
2024-05-28_12-53-01.058122,"62.64,56.32"
2024-05-28_12-53-01.090916,"84.47,83.89"
2024-05-28_12-53-01.123676,"73.11,97.56"
2024-05-28_12-53-01.156437,"87.43,77.02"
2024-05-28_12-53-01.189075,"90.38,58.21"
2024-05-28_12-53-01.217871,"92.43,55.87"
2024-05-28_12-53-01.250639,"95.38,53.59"
2024-05-28_12-53-01.283410,"108.82,53.41"
2024-05-28_12-53-01.316197,"100.17,51.46"
2024-05-28_12-53-01.348928,"77.16,54.99"
2024-05-28_12-53-01.381676,"61.80,77.45"
2024-05-28_12-53-01.414371,"78.61,91.90"
2024-05-28_12-53-01.443112,"84.46,86.53"
2024-05-28_12-53-01.475875,"93.17,80.20"
2024-05-28_12-53-01.508717,"82.79,84.72"
2024-05-28_12-53-01.541446,"101.88,58.95"
2024-05-28_12-53-01.574209,"88.18,54.28"
2024-05-28_12-53-01.606960,"98.58,52.96"
2024-05-28_12-53-01.639701,"104.40,56.83"
2024-05-28_12-53-01.668408,"84.77,48.07"
2024-05-28_12-53-01.701179,"68.68,62.78"
2024-05-28_12-53-01.733935,"63.10,60.57"
2024-05-28_12-53-01.766830,"80.96,89.29"
2024-05-28_12-53-01.799501,"96.67,93.90"
2024-05-28_12-53-01.832203,"84.65,86.17"
2024-05-28_12-53-01.864903,"92.90,80.00"
2024-05-28_12-53-01.893697,"85.83,68.78"
2024-05-28_12-53-01.926457,"91.78,52.52"
2024-05-28_12-53-01.959218,"104.59,57.26"
2024-05-28_12-53-01.992034,"70.66,56.62"
2024-05-28_12-53-02.024780,"68.08,86.41"
2024-05-28_12-53-02.059346,"76.16,71.66"
2024-05-28_12-53-02.090262,"95.59,85.99"
2024-05-28_12-53-02.119013,"81.82,94.40"
2024-05-28_12-53-02.151832,"91.85,76.07"
2024-05-28_12-53-02.184517,"105.40,81.39"
2024-05-28_12-53-02.217225,"96.84,56.87"
2024-05-28_12-53-02.250022,"101.52,47.05"
2024-05-28_12-53-02.282750,"107.15,57.40"
2024-05-28_12-53-02.315454,"64.48,57.58"
2024-05-28_12-53-02.344200,"64.50,82.47"
2024-05-28_12-53-02.376968,"81.63,89.01"
2024-05-28_12-53-02.409966,"85.10,83.81"
2024-05-28_12-53-02.442586,"93.33,86.27"
2024-05-28_12-53-02.475308,"93.94,74.85"
2024-05-28_12-53-02.508058,"99.41,81.86"
2024-05-28_12-53-02.540735,"96.36,56.52"
2024-05-28_12-53-02.569481,"84.06,53.49"
2024-05-28_12-53-02.602255,"98.95,53.11"
2024-05-28_12-53-02.635008,"64.90,55.54"
2024-05-28_12-53-02.667879,"63.12,77.61"
2024-05-28_12-53-02.700557,"83.39,92.76"
2024-05-28_12-53-02.733325,"94.21,81.03"
2024-05-28_12-53-02.765983,"89.89,78.28"
2024-05-28_12-53-02.794772,"96.28,70.57"
2024-05-28_12-53-02.827525,"98.13,77.75"
2024-05-28_12-53-02.860341,"103.36,56.49"
2024-05-28_12-53-02.893224,"87.51,54.55"
2024-05-28_12-53-02.925847,"101.27,52.58"
2024-05-28_12-53-02.958576,"68.14,58.57"
2024-05-28_12-53-02.991265,"75.14,78.16"
2024-05-28_12-53-03.020043,"74.64,94.30"
2024-05-28_12-53-03.052801,"92.55,76.97"
2024-05-28_12-53-03.085595,"87.59,82.60"
2024-05-28_12-53-03.118319,"109.26,74.86"
2024-05-28_12-53-03.151077,"82.97,82.60"
2024-05-28_12-53-03.183843,"87.37,52.74"
2024-05-28_12-53-03.216536,"95.99,51.67"
2024-05-28_12-53-03.249267,"92.16,52.36"
2024-05-28_12-53-03.278069,"67.10,61.14"
2024-05-28_12-53-03.310829,"71.80,81.80"
2024-05-28_12-53-03.343579,"75.86,89.72"
2024-05-28_12-53-03.376337,"92.70,75.49"
2024-05-28_12-53-03.409084,"92.29,80.11"
2024-05-28_12-53-03.447375,"99.58,86.55"
2024-05-28_12-53-03.474592,"88.11,54.64"
2024-05-28_12-53-03.503466,"108.25,53.69"
2024-05-28_12-53-03.536139,"80.04,57.67"
2024-05-28_12-53-03.568896,"77.16,50.72"
2024-05-28_12-53-03.601681,"70.46,62.17"
2024-05-28_12-53-03.634524,"62.88,64.99"
2024-05-28_12-53-03.667670,"79.64,90.14"
2024-05-28_12-53-03.699820,"79.38,88.16"
2024-05-28_12-53-03.728588,"85.20,83.01"
2024-05-28_12-53-03.761400,"78.79,79.88"
2024-05-28_12-53-03.794147,"97.16,51.73"
2024-05-28_12-53-03.826891,"100.37,52.44"
2024-05-28_12-53-03.859654,"106.75,56.75"
2024-05-28_12-53-03.892382,"75.04,56.32"
2024-05-28_12-53-03.925088,"67.15,57.93"
2024-05-28_12-53-03.953867,"76.78,63.05"
2024-05-28_12-53-03.986649,"91.28,88.43"
2024-05-28_12-53-04.020577,"94.77,87.77"
2024-05-28_12-53-04.052555,"85.14,75.70"
2024-05-28_12-53-04.085213,"85.93,59.83"
2024-05-28_12-53-04.117654,"90.74,59.12"
2024-05-28_12-53-04.150353,"88.48,47.20"
2024-05-28_12-53-04.179152,"109.22,55.98"
