timestamp,EMG
2024-05-28_13-11-37.273023,"76.09,61.30"
2024-05-28_13-11-37.305547,"79.53,48.04"
2024-05-28_13-11-37.338257,"64.31,103.18"
2024-05-28_13-11-37.367062,"81.74,82.86"
2024-05-28_13-11-37.399784,"72.10,87.80"
2024-05-28_13-11-37.432573,"90.04,91.35"
2024-05-28_13-11-37.465353,"86.17,87.13"
2024-05-28_13-11-37.498128,"102.97,69.77"
2024-05-28_13-11-37.530869,"104.69,54.04"
2024-05-28_13-11-37.563558,"97.91,54.49"
2024-05-28_13-11-37.592310,"101.73,58.66"
2024-05-28_13-11-37.625142,"66.56,59.76"
2024-05-28_13-11-37.657880,"73.34,54.70"
2024-05-28_13-11-37.690640,"73.71,61.08"
2024-05-28_13-11-37.723392,"87.61,91.96"
2024-05-28_13-11-37.756143,"67.81,84.00"
2024-05-28_13-11-37.788814,"83.24,85.48"
2024-05-28_13-11-37.817593,"92.91,83.43"
2024-05-28_13-11-37.850358,"96.19,82.08"
2024-05-28_13-11-37.883175,"97.98,47.66"
2024-05-28_13-11-37.915980,"109.86,58.42"
2024-05-28_13-11-37.948686,"83.16,57.44"
2024-05-28_13-11-37.981583,"76.28,57.00"
2024-05-28_13-11-38.014125,"74.18,65.67"
2024-05-28_13-11-38.042881,"76.09,80.16"
2024-05-28_13-11-38.075654,"81.04,95.97"
2024-05-28_13-11-38.108419,"84.11,84.50"
2024-05-28_13-11-38.141205,"87.62,84.45"
2024-05-28_13-11-38.174015,"101.69,81.46"
2024-05-28_13-11-38.206753,"94.03,90.75"
2024-05-28_13-11-38.239453,"108.39,53.86"
2024-05-28_13-11-38.272118,"108.78,53.52"
2024-05-28_13-11-38.300954,"88.43,54.64"
2024-05-28_13-11-38.333703,"66.88,60.93"
2024-05-28_13-11-38.366467,"74.66,60.70"
2024-05-28_13-11-38.399228,"63.78,79.51"
2024-05-28_13-11-38.432050,"80.76,83.29"
2024-05-28_13-11-38.464691,"73.75,86.21"
2024-05-28_13-11-38.493456,"96.04,94.38"
2024-05-28_13-11-38.526239,"83.07,77.52"
2024-05-28_13-11-38.558971,"107.69,69.28"
2024-05-28_13-11-38.591751,"90.99,58.00"
2024-05-28_13-11-38.624547,"98.49,47.47"
2024-05-28_13-11-38.657301,"86.44,60.74"
2024-05-28_13-11-38.690033,"58.11,61.04"
2024-05-28_13-11-38.718770,"81.20,55.14"
2024-05-28_13-11-38.751517,"77.98,79.32"
2024-05-28_13-11-38.784288,"83.36,82.79"
2024-05-28_13-11-38.817116,"68.64,103.09"
2024-05-28_13-11-38.849837,"83.80,90.28"
2024-05-28_13-11-38.882724,"100.63,82.57"
2024-05-28_13-11-38.915312,"108.29,72.28"
2024-05-28_13-11-38.947976,"93.93,54.90"
2024-05-28_13-11-38.976838,"110.61,57.00"
2024-05-28_13-11-39.010046,"82.91,55.17"
2024-05-28_13-11-39.052295,"70.55,54.80"
2024-05-28_13-11-39.099127,"91.33,69.65"
2024-05-28_13-11-39.110587,"73.86,74.64"
2024-05-28_13-11-39.141245,"69.09,96.90"
2024-05-28_13-11-39.181576,"60.55,87.16"
2024-05-28_13-11-39.205055,"67.20,101.68"
2024-05-28_13-11-39.235365,"82.76,84.83"
2024-05-28_13-11-39.267647,"81.76,61.12"
2024-05-28_13-11-39.300453,"110.79,55.89"
2024-05-28_13-11-39.333196,"101.23,57.84"
2024-05-28_13-11-39.365892,"79.40,49.54"
2024-05-28_13-11-39.398801,"77.08,61.38"
2024-05-28_13-11-39.427416,"78.54,73.11"
2024-05-28_13-11-39.460182,"74.29,85.57"
2024-05-28_13-11-39.493006,"89.58,89.94"
2024-05-28_13-11-39.525685,"70.58,65.18"
2024-05-28_13-11-39.558463,"96.32,91.34"
2024-05-28_13-11-39.592996,"91.58,82.36"
2024-05-28_13-11-39.623920,"99.48,69.93"
2024-05-28_13-11-39.652663,"107.74,58.16"
2024-05-28_13-11-39.685428,"102.42,56.61"
2024-05-28_13-11-39.718206,"80.30,57.19"
2024-05-28_13-11-39.750959,"64.96,56.58"
2024-05-28_13-11-39.783712,"78.64,82.27"
2024-05-28_13-11-39.816462,"73.79,98.70"
2024-05-28_13-11-39.849188,"72.06,84.33"
2024-05-28_13-11-39.878116,"85.76,86.50"
2024-05-28_13-11-39.910761,"84.75,85.01"
2024-05-28_13-11-39.943525,"93.80,84.10"
2024-05-28_13-11-39.992520,"103.15,60.06"
2024-05-28_13-11-40.010434,"67.70,56.48"
2024-05-28_13-11-40.041973,"78.69,57.66"
2024-05-28_13-11-40.074785,"73.52,60.43"
2024-05-28_13-11-40.103347,"85.81,49.53"
2024-05-28_13-11-40.136083,"70.80,75.48"
2024-05-28_13-11-40.168807,"74.24,84.18"
2024-05-28_13-11-40.201605,"78.82,93.27"
2024-05-28_13-11-40.234338,"92.41,83.70"
2024-05-28_13-11-40.267024,"93.69,85.46"
2024-05-28_13-11-40.299759,"101.59,81.80"
2024-05-28_13-11-40.328514,"95.92,54.45"
2024-05-28_13-11-40.361317,"99.28,53.75"
2024-05-28_13-11-40.394034,"102.22,59.69"
2024-05-28_13-11-40.426828,"67.09,59.42"
2024-05-28_13-11-40.459578,"83.86,55.37"
2024-05-28_13-11-40.492375,"76.08,64.48"
2024-05-28_13-11-40.525102,"86.16,91.39"
2024-05-28_13-11-40.553801,"72.15,93.23"
2024-05-28_13-11-40.586540,"82.80,87.13"
2024-05-28_13-11-40.619357,"90.45,82.42"
2024-05-28_13-11-40.652083,"91.38,80.20"
2024-05-28_13-11-40.684871,"98.20,48.59"
2024-05-28_13-11-40.717721,"112.59,58.23"
2024-05-28_13-11-40.750353,"85.38,56.28"
2024-05-28_13-11-40.779086,"75.21,57.16"
2024-05-28_13-11-40.811861,"75.48,61.25"
2024-05-28_13-11-40.844657,"79.65,51.97"
2024-05-28_13-11-40.877471,"76.46,96.75"
2024-05-28_13-11-40.910207,"84.17,84.63"
2024-05-28_13-11-40.942955,"85.15,94.61"
2024-05-28_13-11-40.975680,"98.46,80.51"
2024-05-28_13-11-41.004386,"91.11,88.37"
2024-05-28_13-11-41.037163,"107.40,52.45"
2024-05-28_13-11-41.069940,"98.85,51.57"
2024-05-28_13-11-41.102968,"90.83,55.35"
2024-05-28_13-11-41.135560,"81.35,60.75"
2024-05-28_13-11-41.168242,"77.79,58.11"
2024-05-28_13-11-41.200940,"66.29,90.86"
2024-05-28_13-11-41.233649,"81.87,80.34"
2024-05-28_13-11-41.262585,"73.71,87.73"
2024-05-28_13-11-41.295270,"85.01,99.74"
2024-05-28_13-11-41.328059,"71.52,87.35"
2024-05-28_13-11-41.360797,"101.38,59.23"
2024-05-28_13-11-41.393548,"100.02,57.42"
2024-05-28_13-11-41.426263,"101.84,47.66"
2024-05-28_13-11-41.458938,"90.50,61.65"
2024-05-28_13-11-41.487780,"59.32,59.63"
2024-05-28_13-11-41.520533,"81.07,55.74"
2024-05-28_13-11-41.553273,"77.29,72.06"
2024-05-28_13-11-41.586033,"83.13,81.96"
2024-05-28_13-11-41.618845,"81.66,96.00"
2024-05-28_13-11-41.651587,"86.81,81.44"
2024-05-28_13-11-41.684222,"93.03,82.07"
2024-05-28_13-11-41.713042,"105.99,81.98"
2024-05-28_13-11-41.745774,"95.49,54.80"
2024-05-28_13-11-41.778548,"106.21,55.12"
2024-05-28_13-11-41.811354,"89.83,53.56"
2024-05-28_13-11-41.844148,"66.96,58.88"
2024-05-28_13-11-41.876824,"74.38,76.05"
2024-05-28_13-11-41.909558,"72.70,85.96"
2024-05-28_13-11-41.938325,"85.10,89.42"
2024-05-28_13-11-41.971056,"71.72,70.23"
2024-05-28_13-11-42.003892,"84.10,92.95"
2024-05-28_13-11-42.036630,"105.81,90.40"
2024-05-28_13-11-42.069423,"90.65,82.64"
2024-05-28_13-11-42.102125,"106.88,53.15"
2024-05-28_13-11-42.134837,"106.90,57.57"
2024-05-28_13-11-42.163608,"90.08,49.32"
2024-05-28_13-11-42.196439,"73.82,62.47"
2024-05-28_13-11-42.229183,"71.23,59.47"
2024-05-28_13-11-42.261930,"69.46,103.82"
2024-05-28_13-11-42.294673,"83.92,89.03"
2024-05-28_13-11-42.327407,"79.32,80.07"
2024-05-28_13-11-42.360130,"97.04,93.31"
2024-05-28_13-11-42.389008,"93.42,78.39"
2024-05-28_13-11-42.421699,"94.37,89.46"
2024-05-28_13-11-42.454438,"114.27,59.69"
2024-05-28_13-11-42.487233,"104.83,55.00"
2024-05-28_13-11-42.519968,"98.10,55.62"
2024-05-28_13-11-42.552713,"68.46,57.88"
2024-05-28_13-11-42.585424,"68.54,56.53"
2024-05-28_13-11-42.614231,"75.34,103.67"
2024-05-28_13-11-42.646979,"81.88,83.63"
2024-05-28_13-11-42.679777,"68.39,89.41"
2024-05-28_13-11-42.712808,"79.98,91.31"
2024-05-28_13-11-42.745660,"72.98,99.06"
2024-05-28_13-11-42.778066,"83.71,64.31"
2024-05-28_13-11-42.810720,"91.15,58.46"
2024-05-28_13-11-42.839504,"96.54,55.98"
2024-05-28_13-11-42.872304,"105.73,59.58"
2024-05-28_13-11-42.905037,"72.76,50.33"
2024-05-28_13-11-42.937792,"69.47,61.57"
2024-05-28_13-11-42.970517,"80.21,60.83"
2024-05-28_13-11-43.003286,"73.38,93.20"
2024-05-28_13-11-43.035989,"84.72,89.66"
2024-05-28_13-11-43.064714,"80.99,79.66"
2024-05-28_13-11-43.097485,"96.68,93.43"
2024-05-28_13-11-43.130368,"92.83,78.10"
2024-05-28_13-11-43.163164,"100.63,68.78"
2024-05-28_13-11-43.195840,"108.07,58.38"
2024-05-28_13-11-43.228643,"93.33,53.99"
2024-05-28_13-11-43.261272,"82.72,57.24"
2024-05-28_13-11-43.290031,"63.84,57.25"
2024-05-28_13-11-43.322778,"81.90,57.34"
2024-05-28_13-11-43.355563,"74.78,80.24"
2024-05-28_13-11-43.388350,"82.89,83.69"
2024-05-28_13-11-43.421108,"85.90,86.62"
2024-05-28_13-11-43.453876,"83.50,83.26"
2024-05-28_13-11-43.486565,"96.23,89.84"
2024-05-28_13-11-43.519398,"104.57,71.22"
2024-05-28_13-11-43.548064,"74.79,55.24"
2024-05-28_13-11-43.580845,"106.50,54.59"
2024-05-28_13-11-43.613617,"93.62,59.75"
2024-05-28_13-11-43.646387,"70.00,51.71"
2024-05-28_13-11-43.679177,"81.52,62.06"
2024-05-28_13-11-43.711892,"71.78,62.54"
2024-05-28_13-11-43.740568,"76.73,91.10"
2024-05-28_13-11-43.773388,"79.49,87.30"
2024-05-28_13-11-43.806216,"85.13,85.89"
2024-05-28_13-11-43.838916,"92.92,89.78"
2024-05-28_13-11-43.871674,"91.26,75.78"
2024-05-28_13-11-43.914264,"90.63,69.43"
2024-05-28_13-11-43.938434,"93.78,58.71"
2024-05-28_13-11-43.970502,"80.61,56.20"
2024-05-28_13-11-43.999598,"75.28,57.75"
2024-05-28_13-11-44.031703,"84.48,75.94"
2024-05-28_13-11-44.064420,"81.38,65.65"
2024-05-28_13-11-44.097042,"75.44,90.54"
2024-05-28_13-11-44.129860,"71.63,86.06"
2024-05-28_13-11-44.162468,"77.66,88.23"
2024-05-28_13-11-44.195223,"83.55,84.77"
2024-05-28_13-11-44.224140,"100.13,82.82"
2024-05-28_13-11-44.256830,"96.86,60.27"
2024-05-28_13-11-44.289528,"77.64,55.54"
2024-05-28_13-11-44.322292,"95.16,56.38"
2024-05-28_13-11-44.355040,"78.45,59.69"
2024-05-28_13-11-44.387764,"67.74,52.04"
2024-05-28_13-11-44.420462,"75.42,64.63"
2024-05-28_13-11-44.449271,"68.93,85.91"
2024-05-28_13-11-44.482034,"83.29,88.58"
2024-05-28_13-11-44.514831,"77.60,90.17"
2024-05-28_13-11-44.547536,"83.97,90.20"
2024-05-28_13-11-44.580413,"103.50,86.28"
2024-05-28_13-11-44.613088,"99.96,69.84"
2024-05-28_13-11-44.646773,"99.91,54.19"
2024-05-28_13-11-44.674563,"110.95,57.40"
2024-05-28_13-11-44.707270,"80.56,58.24"
2024-05-28_13-11-44.740168,"73.47,57.73"
2024-05-28_13-11-44.772823,"76.20,56.85"
2024-05-28_13-11-44.805720,"71.99,96.33"
2024-05-28_13-11-44.838662,"77.33,98.07"
2024-05-28_13-11-44.871028,"77.44,87.89"
2024-05-28_13-11-44.899857,"77.88,95.18"
2024-05-28_13-11-44.932713,"93.66,79.14"
2024-05-28_13-11-44.965468,"99.39,86.78"
2024-05-28_13-11-44.998156,"99.07,59.15"
2024-05-28_13-11-45.031192,"77.09,56.34"
2024-05-28_13-11-45.063884,"100.29,55.47"
2024-05-28_13-11-45.096399,"76.23,59.50"
2024-05-28_13-11-45.125102,"66.71,49.31"
2024-05-28_13-11-45.157857,"73.00,67.81"
2024-05-28_13-11-45.192095,"70.56,83.33"
2024-05-28_13-11-45.223645,"75.42,95.23"
2024-05-28_13-11-45.256255,"72.70,89.33"
2024-05-28_13-11-45.288911,"86.10,87.82"
2024-05-28_13-11-45.321615,"105.45,85.21"
2024-05-28_13-11-45.350397,"101.32,69.84"
2024-05-28_13-11-45.383236,"100.41,53.06"
2024-05-28_13-11-45.415966,"110.83,57.69"
2024-05-28_13-11-45.448754,"84.14,56.53"
2024-05-28_13-11-45.481498,"73.88,59.10"
2024-05-28_13-11-45.514212,"76.17,56.79"
2024-05-28_13-11-45.546897,"72.76,88.67"
2024-05-28_13-11-45.575679,"84.97,93.15"
2024-05-28_13-11-45.608467,"76.12,84.55"
2024-05-28_13-11-45.641226,"87.21,93.08"
2024-05-28_13-11-45.674020,"94.23,80.05"
2024-05-28_13-11-45.706767,"101.34,84.34"
2024-05-28_13-11-45.739532,"108.03,73.84"
2024-05-28_13-11-45.772195,"90.40,54.89"
2024-05-28_13-11-45.800956,"104.01,54.64"
2024-05-28_13-11-45.833708,"69.96,59.32"
2024-05-28_13-11-45.866504,"80.55,54.85"
2024-05-28_13-11-45.899302,"73.22,66.21"
2024-05-28_13-11-45.932049,"69.88,83.55"
2024-05-28_13-11-45.964763,"87.18,89.57"
2024-05-28_13-11-45.997497,"81.95,86.51"
2024-05-28_13-11-46.026270,"87.67,88.07"
2024-05-28_13-11-46.059091,"92.93,88.93"
2024-05-28_13-11-46.091833,"100.97,54.52"
2024-05-28_13-11-46.124548,"99.56,53.90"
2024-05-28_13-11-46.157348,"110.69,58.64"
2024-05-28_13-11-46.190068,"80.11,56.97"
2024-05-28_13-11-46.222752,"71.14,56.90"
2024-05-28_13-11-46.251533,"73.02,58.69"
2024-05-28_13-11-46.284318,"73.42,96.85"
2024-05-28_13-11-46.317082,"83.51,94.27"
2024-05-28_13-11-46.349830,"76.50,85.02"
2024-05-28_13-11-46.382652,"90.77,88.77"
2024-05-28_13-11-46.415503,"94.43,77.52"
2024-05-28_13-11-46.448145,"104.08,75.91"
2024-05-28_13-11-46.480791,"108.08,59.63"
2024-05-28_13-11-46.509609,"89.26,55.46"
2024-05-28_13-11-46.542371,"98.58,55.33"
2024-05-28_13-11-46.575113,"68.59,61.33"
2024-05-28_13-11-46.607887,"78.85,52.01"
2024-05-28_13-11-46.640702,"67.23,93.01"
2024-05-28_13-11-46.673376,"75.35,85.20"
2024-05-28_13-11-46.702212,"78.60,92.94"
2024-05-28_13-11-46.735092,"67.53,89.28"
2024-05-28_13-11-46.767658,"87.38,86.78"
2024-05-28_13-11-46.800474,"94.12,90.65"
2024-05-28_13-11-46.833185,"98.84,70.89"
2024-05-28_13-11-46.865996,"102.08,52.95"
2024-05-28_13-11-46.898699,"108.43,59.55"
2024-05-28_13-11-46.931364,"76.57,56.28"
2024-05-28_13-11-46.960148,"79.44,56.39"
2024-05-28_13-11-46.992958,"73.14,59.01"
2024-05-28_13-11-47.025699,"72.87,93.43"
2024-05-28_13-11-47.058490,"81.88,95.49"
2024-05-28_13-11-47.091309,"74.04,72.72"
2024-05-28_13-11-47.124578,"84.67,92.03"
2024-05-28_13-11-47.156682,"83.40,81.20"
2024-05-28_13-11-47.185447,"102.34,89.03"
2024-05-28_13-11-47.218327,"100.68,74.58"
2024-05-28_13-11-47.251074,"77.34,54.73"
2024-05-28_13-11-47.283790,"90.42,56.27"
2024-05-28_13-11-47.316644,"69.88,60.72"
2024-05-28_13-11-47.349246,"80.22,52.13"
2024-05-28_13-11-47.381952,"70.18,62.84"
2024-05-28_13-11-47.410772,"72.48,83.16"
2024-05-28_13-11-47.443521,"85.08,87.99"
2024-05-28_13-11-47.476287,"90.38,84.46"
2024-05-28_13-11-47.509080,"90.72,84.18"
2024-05-28_13-11-47.541848,"97.91,89.52"
2024-05-28_13-11-47.574604,"99.76,70.62"
2024-05-28_13-11-47.607251,"101.38,53.47"
2024-05-28_13-11-47.636049,"103.42,58.76"
2024-05-28_13-11-47.668811,"70.12,57.24"
2024-05-28_13-11-47.701647,"71.18,57.39"
2024-05-28_13-11-47.734376,"86.41,60.52"
2024-05-28_13-11-47.767208,"74.29,77.39"
2024-05-28_13-11-47.799889,"75.80,97.19"
2024-05-28_13-11-47.832603,"73.17,85.33"
2024-05-28_13-11-47.861330,"87.46,86.66"
2024-05-28_13-11-47.895148,"88.26,77.80"
2024-05-28_13-11-47.926857,"98.77,78.44"
2024-05-28_13-11-47.959700,"107.90,57.85"
2024-05-28_13-11-47.992483,"85.37,55.51"
2024-05-28_13-11-48.025131,"97.58,58.83"
2024-05-28_13-11-48.057839,"66.98,60.11"
2024-05-28_13-11-48.086679,"79.22,52.52"
2024-05-28_13-11-48.119398,"66.26,74.61"
2024-05-28_13-11-48.152799,"79.63,82.77"
2024-05-28_13-11-48.184935,"85.35,87.58"
2024-05-28_13-11-48.217740,"91.59,87.17"
2024-05-28_13-11-48.250435,"87.67,85.97"
2024-05-28_13-11-48.283158,"96.64,89.59"
2024-05-28_13-11-48.311935,"97.59,70.35"
2024-05-28_13-11-48.344718,"102.51,54.49"
2024-05-28_13-11-48.377467,"111.97,58.14"
2024-05-28_13-11-48.410229,"80.35,56.96"
2024-05-28_13-11-48.442981,"70.69,59.61"
2024-05-28_13-11-48.475761,"75.58,58.22"
2024-05-28_13-11-48.508452,"73.13,83.76"
2024-05-28_13-11-48.537212,"81.98,95.88"
2024-05-28_13-11-48.569982,"86.37,86.07"
2024-05-28_13-11-48.602749,"88.60,81.26"
2024-05-28_13-11-48.635545,"89.28,82.71"
2024-05-28_13-11-48.668299,"100.06,84.77"
2024-05-28_13-11-48.700998,"105.85,73.84"
2024-05-28_13-11-48.733713,"88.19,55.09"
2024-05-28_13-11-48.762482,"109.20,54.10"
2024-05-28_13-11-48.795448,"81.11,58.39"
2024-05-28_13-11-48.828053,"76.09,50.29"
2024-05-28_13-11-48.860816,"79.14,68.56"
2024-05-28_13-11-48.893605,"68.01,83.74"
2024-05-28_13-11-48.926276,"86.60,89.40"
2024-05-28_13-11-48.958995,"79.12,76.39"
2024-05-28_13-11-48.987739,"85.36,92.62"
2024-05-28_13-11-49.020596,"101.29,86.97"
2024-05-28_13-11-49.053534,"90.70,80.49"
2024-05-28_13-11-49.086133,"97.13,54.11"
2024-05-28_13-11-49.118908,"105.10,58.93"
2024-05-28_13-11-49.151602,"92.24,56.70"
2024-05-28_13-11-49.184265,"73.42,57.92"
2024-05-28_13-11-49.213076,"76.21,57.81"
2024-05-28_13-11-49.245857,"76.35,56.98"
2024-05-28_13-11-49.278625,"73.66,98.79"
2024-05-28_13-11-49.311365,"70.26,84.59"
2024-05-28_13-11-49.344149,"88.49,86.63"
2024-05-28_13-11-49.376884,"87.79,82.18"
2024-05-28_13-11-49.409616,"96.58,80.99"
2024-05-28_13-11-49.438345,"104.10,71.97"
2024-05-28_13-11-49.471143,"90.28,56.13"
2024-05-28_13-11-49.503956,"112.69,54.49"
2024-05-28_13-11-49.536660,"82.69,58.53"
2024-05-28_13-11-49.569426,"67.55,52.09"
2024-05-28_13-11-49.602206,"80.97,62.80"
2024-05-28_13-11-49.634909,"71.26,63.06"
2024-05-28_13-11-49.663642,"80.92,90.17"
2024-05-28_13-11-49.696441,"74.87,88.95"
2024-05-28_13-11-49.729185,"82.14,85.86"
2024-05-28_13-11-49.761945,"96.27,88.61"
2024-05-28_13-11-49.794740,"100.17,73.51"
2024-05-28_13-11-49.827461,"103.67,69.17"
2024-05-28_13-11-49.860199,"108.50,58.04"
2024-05-28_13-11-49.888978,"95.72,55.32"
2024-05-28_13-11-49.921703,"81.85,56.56"
2024-05-28_13-11-49.954492,"65.17,56.52"
2024-05-28_13-11-49.987380,"81.75,57.25"
2024-05-28_13-11-50.020141,"75.49,82.35"
2024-05-28_13-11-50.052853,"79.53,85.07"
2024-05-28_13-11-50.085491,"70.26,89.58"
2024-05-28_13-11-50.114178,"84.88,85.65"
2024-05-28_13-11-50.147005,"96.83,85.23"
2024-05-28_13-11-50.179729,"112.03,82.55"
2024-05-28_13-11-50.212532,"87.43,56.02"
2024-05-28_13-11-50.245301,"110.00,53.84"
2024-05-28_13-11-50.278055,"97.45,57.28"
2024-05-28_13-11-50.310724,"78.58,51.89"
2024-05-28_13-11-50.339503,"69.85,62.54"
2024-05-28_13-11-50.372287,"78.53,77.40"
2024-05-28_13-11-50.405116,"69.59,76.82"
2024-05-28_13-11-50.437890,"85.03,89.33"
2024-05-28_13-11-50.470586,"65.49,80.20"
2024-05-28_13-11-50.503469,"96.82,94.76"
2024-05-28_13-11-50.536092,"88.89,78.72"
2024-05-28_13-11-50.564809,"97.84,82.44"
2024-05-28_13-11-50.597554,"108.02,58.43"
2024-05-28_13-11-50.630315,"101.44,55.07"
2024-05-28_13-11-50.663117,"95.11,55.54"
2024-05-28_13-11-50.695873,"69.73,57.97"
2024-05-28_13-11-50.728627,"66.36,56.42"
2024-05-28_13-11-50.761344,"80.46,67.80"
2024-05-28_13-11-50.794048,"78.94,84.40"
2024-05-28_13-11-50.822922,"87.87,86.47"
2024-05-28_13-11-50.855688,"66.01,82.44"
2024-05-28_13-11-50.888385,"76.94,94.80"
2024-05-28_13-11-50.921207,"105.72,90.41"
2024-05-28_13-11-50.953934,"90.52,56.64"
2024-05-28_13-11-50.986637,"108.82,54.02"
2024-05-28_13-11-51.019410,"103.24,58.35"
2024-05-28_13-11-51.048168,"83.44,48.84"
2024-05-28_13-11-51.080899,"74.96,62.77"
2024-05-28_13-11-51.113708,"70.46,60.34"
2024-05-28_13-11-51.146448,"67.90,98.90"
2024-05-28_13-11-51.179227,"83.66,90.34"
2024-05-28_13-11-51.211947,"81.32,79.38"
2024-05-28_13-11-51.244611,"82.53,89.36"
2024-05-28_13-11-51.273412,"89.45,80.92"
2024-05-28_13-11-51.306152,"94.04,80.36"
2024-05-28_13-11-51.338957,"112.00,58.84"
2024-05-28_13-11-51.371719,"96.23,53.92"
2024-05-28_13-11-51.404522,"101.34,55.07"
2024-05-28_13-11-51.437251,"75.97,56.51"
2024-05-28_13-11-51.469932,"68.07,55.53"
2024-05-28_13-11-51.498774,"81.24,58.40"
2024-05-28_13-11-51.531500,"72.96,85.81"
2024-05-28_13-11-51.564255,"85.96,86.30"
2024-05-28_13-11-51.597029,"72.11,81.06"
2024-05-28_13-11-51.629800,"91.09,90.38"
2024-05-28_13-11-51.662611,"101.82,85.73"
2024-05-28_13-11-51.695393,"93.07,71.64"
2024-05-28_13-11-51.724132,"72.30,58.28"
2024-05-28_13-11-51.756848,"98.76,60.86"
2024-05-28_13-11-51.789552,"87.36,48.41"
2024-05-28_13-11-51.822346,"74.72,61.32"
2024-05-28_13-11-51.855070,"73.02,61.05"
2024-05-28_13-11-51.887818,"74.38,61.41"
2024-05-28_13-11-51.920623,"76.04,91.89"
2024-05-28_13-11-51.949392,"71.02,83.47"
2024-05-28_13-11-51.982132,"80.24,95.31"
2024-05-28_13-11-52.014871,"85.37,82.33"
2024-05-28_13-11-52.047660,"68.49,85.88"
2024-05-28_13-11-52.080412,"100.31,62.36"
2024-05-28_13-11-52.113084,"84.52,54.77"
2024-05-28_13-11-52.146024,"110.89,55.95"
2024-05-28_13-11-52.174755,"77.16,54.75"
2024-05-28_13-11-52.207383,"82.98,56.30"
2024-05-28_13-11-52.240216,"79.24,71.62"
2024-05-28_13-11-52.272932,"69.02,74.57"
2024-05-28_13-11-52.305776,"75.96,89.62"
2024-05-28_13-11-52.338419,"77.98,86.82"
2024-05-28_13-11-52.371110,"81.56,98.19"
2024-05-28_13-11-52.399993,"106.88,86.96"
2024-05-28_13-11-52.432674,"81.57,81.14"
2024-05-28_13-11-52.465395,"99.10,58.74"
2024-05-28_13-11-52.498165,"99.53,57.85"
2024-05-28_13-11-52.530972,"107.89,47.35"
2024-05-28_13-11-52.563668,"82.14,62.04"
2024-05-28_13-11-52.596407,"58.11,59.51"
2024-05-28_13-11-52.625289,"79.94,55.45"
2024-05-28_13-11-52.657952,"76.11,82.05"
2024-05-28_13-11-52.690711,"84.65,83.05"
2024-05-28_13-11-52.723513,"75.81,98.83"
2024-05-28_13-11-52.756264,"78.89,85.97"
2024-05-28_13-11-52.789110,"88.66,84.31"
2024-05-28_13-11-52.822013,"101.02,79.69"
2024-05-28_13-11-52.850717,"89.04,72.63"
2024-05-28_13-11-52.883360,"72.27,57.17"
2024-05-28_13-11-52.916051,"84.42,53.87"
2024-05-28_13-11-52.948866,"70.73,59.28"
2024-05-28_13-11-52.981615,"68.61,60.97"
2024-05-28_13-11-53.014325,"82.45,82.75"
2024-05-28_13-11-53.047016,"70.75,86.09"
2024-05-28_13-11-53.075806,"79.80,84.20"
2024-05-28_13-11-53.108533,"77.81,85.57"
2024-05-28_13-11-53.141300,"93.34,97.17"
2024-05-28_13-11-53.174249,"83.58,80.34"
2024-05-28_13-11-53.206886,"86.13,62.73"
2024-05-28_13-11-53.239580,"100.84,60.89"
2024-05-28_13-11-53.272273,"89.21,47.86"
2024-05-28_13-11-53.305071,"103.33,58.50"
2024-05-28_13-11-53.333768,"58.90,58.56"
2024-05-28_13-11-53.366552,"69.81,56.31"
2024-05-28_13-11-53.399340,"83.68,59.13"
2024-05-28_13-11-53.432142,"78.68,76.38"
2024-05-28_13-11-53.464870,"82.12,95.76"
2024-05-28_13-11-53.497645,"72.79,82.50"
2024-05-28_13-11-53.530289,"73.38,93.88"
2024-05-28_13-11-53.559221,"89.52,87.12"
2024-05-28_13-11-53.591890,"94.41,71.90"
2024-05-28_13-11-53.624652,"107.11,53.94"
2024-05-28_13-11-53.657402,"104.46,52.45"
2024-05-28_13-11-53.690221,"85.92,55.74"
2024-05-28_13-11-53.722851,"68.56,62.90"
2024-05-28_13-11-53.755575,"75.54,59.06"
2024-05-28_13-11-53.784391,"70.28,57.28"
2024-05-28_13-11-53.817160,"73.73,80.63"
2024-05-28_13-11-53.849950,"86.39,86.38"
2024-05-28_13-11-53.882701,"85.79,90.75"
2024-05-28_13-11-53.915497,"86.13,85.39"
2024-05-28_13-11-53.948178,"92.56,83.29"
2024-05-28_13-11-53.980888,"95.08,74.31"
2024-05-28_13-11-54.010864,"99.24,47.31"
2024-05-28_13-11-54.042640,"90.06,59.40"
2024-05-28_13-11-54.075268,"67.21,56.67"
2024-05-28_13-11-54.108060,"75.55,60.04"
2024-05-28_13-11-54.140770,"74.89,61.55"
2024-05-28_13-11-54.173498,"78.91,59.80"
2024-05-28_13-11-54.206188,"77.56,98.30"
2024-05-28_13-11-54.234934,"73.76,83.83"
2024-05-28_13-11-54.267703,"90.65,82.72"
2024-05-28_13-11-54.300455,"93.71,88.20"
2024-05-28_13-11-54.333222,"97.54,82.02"
2024-05-28_13-11-54.366034,"111.62,69.45"
2024-05-28_13-11-54.398823,"100.08,52.11"
2024-05-28_13-11-54.431487,"96.55,54.13"
2024-05-28_13-11-54.460231,"95.20,59.99"
2024-05-28_13-11-54.493062,"63.38,58.76"
2024-05-28_13-11-54.525801,"84.51,56.59"
2024-05-28_13-11-54.558526,"76.61,63.91"
2024-05-28_13-11-54.591670,"82.74,92.16"
2024-05-28_13-11-54.626345,"74.80,99.60"
2024-05-28_13-11-54.657447,"75.13,93.43"
2024-05-28_13-11-54.685592,"71.41,93.36"
2024-05-28_13-11-54.718352,"77.42,80.08"
2024-05-28_13-11-54.751147,"102.01,66.68"
2024-05-28_13-11-54.783911,"103.44,58.58"
2024-05-28_13-11-54.816659,"90.57,56.95"
2024-05-28_13-11-54.849354,"90.69,56.47"
2024-05-28_13-11-54.882028,"64.64,60.19"
2024-05-28_13-11-54.910833,"79.37,53.28"
2024-05-28_13-11-54.943609,"63.07,102.47"
2024-05-28_13-11-54.976381,"78.95,81.82"
2024-05-28_13-11-55.009267,"82.35,90.98"
2024-05-28_13-11-55.042031,"73.30,88.35"
2024-05-28_13-11-55.074681,"80.04,90.10"
2024-05-28_13-11-55.107359,"93.36,89.82"
2024-05-28_13-11-55.136074,"96.58,70.11"
2024-05-28_13-11-55.168873,"101.56,53.16"
2024-05-28_13-11-55.201634,"109.32,59.23"
2024-05-28_13-11-55.234402,"83.77,57.52"
2024-05-28_13-11-55.267221,"73.07,57.05"
2024-05-28_13-11-55.299943,"78.95,56.58"
2024-05-28_13-11-55.332649,"76.85,59.90"
2024-05-28_13-11-55.361355,"76.38,95.93"
2024-05-28_13-11-55.394165,"85.19,84.21"
2024-05-28_13-11-55.427115,"86.67,87.35"
2024-05-28_13-11-55.459736,"84.69,89.41"
2024-05-28_13-11-55.492462,"99.08,90.12"
2024-05-28_13-11-55.525253,"106.31,83.37"
2024-05-28_13-11-55.557943,"90.59,56.23"
2024-05-28_13-11-55.586656,"107.63,53.63"
2024-05-28_13-11-55.619400,"96.85,57.79"
2024-05-28_13-11-55.652185,"69.18,51.45"
2024-05-28_13-11-55.685143,"76.96,62.17"
2024-05-28_13-11-55.717810,"74.72,71.92"
2024-05-28_13-11-55.750569,"71.02,84.49"
2024-05-28_13-11-55.783234,"85.29,89.30"
2024-05-28_13-11-55.811953,"68.51,78.97"
2024-05-28_13-11-55.844740,"96.29,96.68"
2024-05-28_13-11-55.877561,"95.57,79.93"
2024-05-28_13-11-55.910314,"89.05,68.02"
2024-05-28_13-11-55.943057,"110.83,59.11"
2024-05-28_13-11-55.975787,"84.06,54.01"
2024-05-28_13-11-56.008539,"102.62,53.72"
2024-05-28_13-11-56.037269,"77.88,54.62"
2024-05-28_13-11-56.070070,"68.48,57.88"
2024-05-28_13-11-56.102916,"75.90,75.02"
2024-05-28_13-11-56.135570,"73.44,81.15"
2024-05-28_13-11-56.168361,"79.19,90.75"
2024-05-28_13-11-56.201116,"70.56,83.43"
2024-05-28_13-11-56.233808,"87.09,86.17"
2024-05-28_13-11-56.262518,"99.45,97.85"
2024-05-28_13-11-56.295272,"91.51,73.26"
2024-05-28_13-11-56.328088,"109.47,69.11"
2024-05-28_13-11-56.360825,"98.59,57.80"
2024-05-28_13-11-56.393594,"105.57,47.30"
2024-05-28_13-11-56.426386,"95.02,59.88"
2024-05-28_13-11-56.459067,"57.63,58.95"
2024-05-28_13-11-56.491804,"68.51,58.57"
2024-05-28_13-11-56.520592,"76.44,75.47"
2024-05-28_13-11-56.553416,"79.83,83.18"
2024-05-28_13-11-56.586140,"71.04,96.21"
2024-05-28_13-11-56.618884,"86.79,80.47"
2024-05-28_13-11-56.651685,"74.45,93.34"
2024-05-28_13-11-56.684413,"82.66,90.81"
2024-05-28_13-11-56.717098,"95.45,59.88"
2024-05-28_13-11-56.745963,"107.37,54.37"
2024-05-28_13-11-56.778654,"97.91,52.45"
2024-05-28_13-11-56.811371,"89.25,56.59"
2024-05-28_13-11-56.844240,"74.87,60.69"
2024-05-28_13-11-56.876937,"80.37,59.49"
2024-05-28_13-11-56.909766,"72.91,57.13"
2024-05-28_13-11-56.942493,"70.60,82.79"
2024-05-28_13-11-56.971315,"87.14,94.98"
2024-05-28_13-11-57.003988,"63.86,95.28"
2024-05-28_13-11-57.036828,"72.63,92.29"
2024-05-28_13-11-57.069536,"89.12,87.06"
2024-05-28_13-11-57.102297,"93.58,81.32"
2024-05-28_13-11-57.134965,"89.05,50.92"
2024-05-28_13-11-57.167658,"89.04,59.51"
2024-05-28_13-11-57.196488,"77.83,57.32"
2024-05-28_13-11-57.229381,"87.58,55.77"
2024-05-28_13-11-57.262146,"76.40,55.33"
2024-05-28_13-11-57.294866,"81.16,68.43"
2024-05-28_13-11-57.327825,"67.68,80.72"
2024-05-28_13-11-57.360427,"73.79,75.62"
2024-05-28_13-11-57.393004,"69.83,88.08"
2024-05-28_13-11-57.421798,"76.37,103.84"
2024-05-28_13-11-57.455554,"82.25,90.45"
2024-05-28_13-11-57.488826,"80.47,64.78"
2024-05-28_13-11-57.520514,"89.72,57.31"
2024-05-28_13-11-57.558903,"70.61,59.09"
2024-05-28_13-11-57.586264,"91.25,60.49"
2024-05-28_13-11-57.622882,"66.83,57.01"
2024-05-28_13-11-57.647771,"89.15,56.94"
2024-05-28_13-11-57.680172,"83.70,62.09"
2024-05-28_13-11-57.712733,"72.65,75.67"
2024-05-28_13-11-57.745802,"66.68,79.86"
2024-05-28_13-11-57.778528,"82.14,87.92"
2024-05-28_13-11-57.810909,"83.09,85.69"
2024-05-28_13-11-57.843583,"84.51,85.02"
2024-05-28_13-11-57.872435,"89.03,84.22"
2024-05-28_13-11-57.905145,"95.07,63.52"
2024-05-28_13-11-57.937978,"93.45,58.93"
2024-05-28_13-11-57.971391,"83.98,57.90"
2024-05-28_13-11-58.003432,"70.08,60.74"
2024-05-28_13-11-58.036537,"71.10,51.87"
2024-05-28_13-11-58.074817,"73.44,88.52"
2024-05-28_13-11-58.110689,"73.57,72.26"
2024-05-28_13-11-58.153014,"71.24,75.02"
2024-05-28_13-11-58.168890,"73.70,86.63"
2024-05-28_13-11-58.196332,"66.95,97.38"
2024-05-28_13-11-58.228779,"76.41,104.83"
2024-05-28_13-11-58.261460,"85.17,79.12"
2024-05-28_13-11-58.294403,"95.49,80.33"
2024-05-28_13-11-58.323021,"104.99,59.04"
2024-05-28_13-11-58.355709,"75.26,55.24"
2024-05-28_13-11-58.388488,"89.62,57.63"
2024-05-28_13-11-58.427215,"79.98,54.36"
2024-05-28_13-11-58.454037,"77.31,57.12"
2024-05-28_13-11-58.486770,"73.51,67.92"
2024-05-28_13-11-58.519442,"70.90,84.86"
2024-05-28_13-11-58.548255,"82.19,87.57"
2024-05-28_13-11-58.581020,"69.18,85.09"
2024-05-28_13-11-58.613954,"66.44,93.23"
2024-05-28_13-11-58.648040,"85.90,98.48"
2024-05-28_13-11-58.679373,"72.95,81.05"
2024-05-28_13-11-58.712214,"99.90,55.97"
2024-05-28_13-11-58.744764,"72.16,60.26"
2024-05-28_13-11-58.777658,"101.45,49.89"
2024-05-28_13-11-58.806284,"87.70,61.33"
2024-05-28_13-11-58.839096,"65.98,58.43"
2024-05-28_13-11-58.871811,"85.60,55.22"
2024-05-28_13-11-58.904648,"76.41,75.62"
2024-05-28_13-11-58.937421,"82.21,82.41"
2024-05-28_13-11-58.970043,"63.28,87.41"
2024-05-28_13-11-58.998810,"84.37,91.24"
2024-05-28_13-11-59.031637,"87.59,85.20"
2024-05-28_13-11-59.064418,"85.03,91.37"
2024-05-28_13-11-59.097334,"88.73,58.89"
2024-05-28_13-11-59.129905,"82.69,60.09"
2024-05-28_13-11-59.164605,"81.43,54.09"
2024-05-28_13-11-59.212890,"86.72,57.08"
2024-05-28_13-11-59.224571,"83.99,60.47"
2024-05-28_13-11-59.257916,"81.69,85.66"
2024-05-28_13-11-59.289735,"75.46,75.34"
2024-05-28_13-11-59.322424,"69.41,70.80"
2024-05-28_13-11-59.355221,"87.90,88.89"
2024-05-28_13-11-59.388020,"82.44,95.12"
2024-05-28_13-11-59.420651,"79.48,91.96"
2024-05-28_13-11-59.449411,"96.02,81.78"
2024-05-28_13-11-59.482224,"93.04,81.01"
2024-05-28_13-11-59.515022,"84.77,48.10"
2024-05-28_13-11-59.547861,"88.28,59.06"
2024-05-28_13-11-59.580592,"80.11,56.51"
2024-05-28_13-11-59.613248,"85.23,58.07"
2024-05-28_13-11-59.646005,"62.43,59.44"
2024-05-28_13-11-59.678655,"88.39,51.19"
2024-05-28_13-11-59.707434,"63.00,87.13"
2024-05-28_13-11-59.740210,"80.53,83.00"
2024-05-28_13-11-59.772963,"75.41,87.15"
2024-05-28_13-11-59.805751,"93.69,93.34"
2024-05-28_13-11-59.838496,"90.63,82.57"
2024-05-28_13-11-59.871198,"98.62,80.83"
2024-05-28_13-11-59.904133,"90.35,55.34"
2024-05-28_13-11-59.932737,"100.46,53.26"
2024-05-28_13-11-59.965497,"107.84,58.35"
2024-05-28_13-11-59.998282,"75.83,58.48"
2024-05-28_13-12-00.031113,"70.35,58.06"
2024-05-28_13-12-00.063911,"77.95,57.29"
2024-05-28_13-12-00.096566,"67.20,76.58"
2024-05-28_13-12-00.129250,"75.14,98.67"
2024-05-28_13-12-00.158022,"73.82,84.94"
2024-05-28_13-12-00.190847,"90.73,84.47"
2024-05-28_13-12-00.223565,"83.02,87.38"
2024-05-28_13-12-00.256312,"102.69,81.64"
2024-05-28_13-12-00.289068,"109.71,71.44"
2024-05-28_13-12-00.321836,"89.75,55.49"
2024-05-28_13-12-00.354510,"79.04,55.21"
2024-05-28_13-12-00.383390,"78.71,60.00"
2024-05-28_13-12-00.416167,"72.50,50.75"
2024-05-28_13-12-00.449001,"76.60,60.36"
2024-05-28_13-12-00.481697,"76.68,64.51"
2024-05-28_13-12-00.514882,"69.50,86.00"
2024-05-28_13-12-00.547094,"80.93,91.89"
2024-05-28_13-12-00.579788,"66.39,80.31"
2024-05-28_13-12-00.608590,"100.45,96.92"
2024-05-28_13-12-00.641331,"96.29,78.27"
2024-05-28_13-12-00.674135,"93.47,89.62"
2024-05-28_13-12-00.706877,"111.49,59.60"
2024-05-28_13-12-00.739807,"95.27,54.63"
2024-05-28_13-12-00.772390,"104.17,54.42"
2024-05-28_13-12-00.805070,"76.51,56.64"
2024-05-28_13-12-00.833819,"66.43,57.08"
2024-05-28_13-12-00.866661,"72.92,77.41"
2024-05-28_13-12-00.899396,"74.23,93.80"
2024-05-28_13-12-00.932173,"77.32,90.83"
2024-05-28_13-12-00.967193,"82.72,83.32"
2024-05-28_13-12-00.997630,"83.39,87.07"
2024-05-28_13-12-01.030397,"98.51,92.44"
2024-05-28_13-12-01.059145,"80.34,71.63"
2024-05-28_13-12-01.091981,"112.62,69.18"
2024-05-28_13-12-01.124716,"100.25,58.74"
2024-05-28_13-12-01.157462,"103.16,47.13"
2024-05-28_13-12-01.190249,"86.30,60.08"
2024-05-28_13-12-01.222967,"57.60,60.34"
2024-05-28_13-12-01.255672,"68.76,57.16"
2024-05-28_13-12-01.284427,"77.89,78.77"
2024-05-28_13-12-01.317261,"80.51,82.96"
2024-05-28_13-12-01.350021,"77.31,97.96"
2024-05-28_13-12-01.382740,"78.31,84.73"
2024-05-28_13-12-01.415539,"88.56,84.93"
2024-05-28_13-12-01.448267,"99.81,80.10"
2024-05-28_13-12-01.480974,"91.92,70.24"
2024-05-28_13-12-01.509738,"107.49,54.94"
2024-05-28_13-12-01.542560,"106.08,52.22"
2024-05-28_13-12-01.575386,"88.62,57.13"
2024-05-28_13-12-01.608084,"78.19,59.19"
2024-05-28_13-12-01.640884,"80.21,57.62"
2024-05-28_13-12-01.673554,"76.31,60.96"
2024-05-28_13-12-01.706253,"72.26,84.20"
2024-05-28_13-12-01.735031,"87.14,92.92"
2024-05-28_13-12-01.767777,"88.49,94.45"
2024-05-28_13-12-01.800559,"86.25,80.11"
2024-05-28_13-12-01.833336,"100.82,80.25"
2024-05-28_13-12-01.866101,"101.59,73.80"
2024-05-28_13-12-01.898904,"99.15,47.62"
2024-05-28_13-12-01.931556,"110.85,57.76"
2024-05-28_13-12-01.960327,"83.73,58.29"
2024-05-28_13-12-01.993118,"79.48,56.18"
2024-05-28_13-12-02.026203,"78.94,60.32"
2024-05-28_13-12-02.058742,"82.05,54.15"
2024-05-28_13-12-02.091391,"70.39,90.38"
2024-05-28_13-12-02.124156,"83.56,83.36"
2024-05-28_13-12-02.156861,"91.75,87.66"
2024-05-28_13-12-02.185574,"95.64,91.51"
2024-05-28_13-12-02.218377,"93.42,89.41"
2024-05-28_13-12-02.251161,"107.17,70.36"
2024-05-28_13-12-02.283914,"100.10,53.31"
2024-05-28_13-12-02.316646,"99.30,53.96"
2024-05-28_13-12-02.349469,"99.05,60.49"
2024-05-28_13-12-02.382148,"66.00,58.49"
2024-05-28_13-12-02.414861,"69.12,56.45"
2024-05-28_13-12-02.443632,"78.04,81.48"
2024-05-28_13-12-02.476435,"81.51,83.63"
2024-05-28_13-12-02.509203,"81.69,95.09"
2024-05-28_13-12-02.541980,"85.80,82.60"
2024-05-28_13-12-02.574767,"88.77,86.61"
2024-05-28_13-12-02.607437,"87.52,80.79"
2024-05-28_13-12-02.640156,"96.96,79.18"
2024-05-28_13-12-02.668959,"112.57,57.96"
2024-05-28_13-12-02.701708,"97.20,55.27"
2024-05-28_13-12-02.734491,"95.19,55.73"
2024-05-28_13-12-02.767248,"70.39,61.62"
2024-05-28_13-12-02.800069,"80.28,51.36"
2024-05-28_13-12-02.832761,"69.36,64.62"
2024-05-28_13-12-02.865458,"72.34,84.68"
2024-05-28_13-12-02.894257,"88.02,87.97"
2024-05-28_13-12-02.927071,"78.79,85.29"
2024-05-28_13-12-02.959789,"86.55,89.37"
2024-05-28_13-12-02.992690,"95.23,86.60"
2024-05-28_13-12-03.025367,"94.27,67.77"
2024-05-28_13-12-03.058039,"85.40,54.27"
2024-05-28_13-12-03.090736,"93.70,58.99"
2024-05-28_13-12-03.119564,"83.84,56.11"
2024-05-28_13-12-03.152414,"80.63,56.37"
2024-05-28_13-12-03.185111,"78.98,82.35"
2024-05-28_13-12-03.217845,"72.99,83.60"
2024-05-28_13-12-03.250652,"77.65,95.56"
2024-05-28_13-12-03.283341,"84.16,85.73"
2024-05-28_13-12-03.316073,"84.46,84.50"
2024-05-28_13-12-03.344797,"87.26,81.39"
2024-05-28_13-12-03.377588,"96.88,81.52"
2024-05-28_13-12-03.410404,"104.08,75.13"
2024-05-28_13-12-03.443164,"89.52,54.36"
2024-05-28_13-12-03.475877,"109.84,55.44"
2024-05-28_13-12-03.508641,"80.66,59.02"
2024-05-28_13-12-03.541341,"67.53,54.43"
2024-05-28_13-12-03.570244,"79.15,61.83"
2024-05-28_13-12-03.602945,"69.93,73.28"
2024-05-28_13-12-03.635702,"78.87,91.59"
2024-05-28_13-12-03.668416,"78.90,87.88"
2024-05-28_13-12-03.701201,"84.87,82.26"
2024-05-28_13-12-03.733900,"99.63,88.12"
2024-05-28_13-12-03.766679,"92.13,75.15"
2024-05-28_13-12-03.795365,"97.69,69.05"
2024-05-28_13-12-03.828172,"107.80,57.96"
2024-05-28_13-12-03.860957,"95.20,55.01"
2024-05-28_13-12-03.893696,"85.56,56.48"
2024-05-28_13-12-03.926479,"64.86,58.61"
2024-05-28_13-12-03.959267,"68.58,55.18"
2024-05-28_13-12-03.991944,"72.20,84.33"
2024-05-28_13-12-04.020686,"82.35,85.09"
2024-05-28_13-12-04.053519,"81.54,88.72"
2024-05-28_13-12-04.086215,"81.51,90.98"
2024-05-28_13-12-04.119009,"92.43,87.76"
2024-05-28_13-12-04.151842,"104.32,88.15"
2024-05-28_13-12-04.184530,"88.16,72.77"
2024-05-28_13-12-04.217222,"108.20,53.94"
2024-05-28_13-12-04.249932,"103.82,57.83"
2024-05-28_13-12-04.278757,"87.55,48.19"
2024-05-28_13-12-04.311594,"74.39,63.81"
2024-05-28_13-12-04.344344,"74.22,58.85"
2024-05-28_13-12-04.377214,"72.42,86.37"
2024-05-28_13-12-04.409859,"79.28,91.34"
2024-05-28_13-12-04.442544,"77.93,80.22"
2024-05-28_13-12-04.471285,"84.27,83.22"
2024-05-28_13-12-04.504065,"88.36,82.09"
2024-05-28_13-12-04.536849,"88.66,84.40"
2024-05-28_13-12-04.569556,"112.20,58.93"
2024-05-28_13-12-04.602349,"95.87,54.22"
2024-05-28_13-12-04.635179,"104.60,54.52"
2024-05-28_13-12-04.667797,"85.79,54.71"
2024-05-28_13-12-04.696905,"66.76,57.33"
2024-05-28_13-12-04.729351,"75.62,80.06"
2024-05-28_13-12-04.762167,"74.80,93.36"
2024-05-28_13-12-04.794839,"76.45,89.73"
2024-05-28_13-12-04.827608,"71.95,84.07"
2024-05-28_13-12-04.860439,"89.35,83.93"
2024-05-28_13-12-04.893117,"100.15,93.48"
2024-05-28_13-12-04.925842,"92.79,75.27"
2024-05-28_13-12-04.954644,"113.32,69.42"
2024-05-28_13-12-04.987392,"99.90,57.66"
2024-05-28_13-12-05.020386,"107.47,47.79"
2024-05-28_13-12-05.052945,"89.71,61.40"
2024-05-28_13-12-05.085711,"58.82,58.56"
2024-05-28_13-12-05.118409,"83.13,55.47"
2024-05-28_13-12-05.151104,"77.96,92.18"
2024-05-28_13-12-05.179881,"82.00,81.84"
2024-05-28_13-12-05.212681,"84.14,94.91"
2024-05-28_13-12-05.245433,"72.98,81.18"
2024-05-28_13-12-05.278257,"89.79,86.10"
2024-05-28_13-12-05.310977,"97.75,79.00"
2024-05-28_13-12-05.343678,"92.63,84.50"
2024-05-28_13-12-05.376421,"110.15,53.00"
2024-05-28_13-12-05.405200,"106.19,51.70"
2024-05-28_13-12-05.437964,"88.27,55.54"
2024-05-28_13-12-05.470716,"70.78,63.02"
2024-05-28_13-12-05.503517,"76.27,59.10"
2024-05-28_13-12-05.536341,"72.25,56.86"
2024-05-28_13-12-05.568995,"71.94,82.50"
2024-05-28_13-12-05.601685,"87.10,86.80"
2024-05-28_13-12-05.630456,"88.36,80.84"
2024-05-28_13-12-05.663270,"86.25,90.42"
2024-05-28_13-12-05.696005,"99.82,83.01"
2024-05-28_13-12-05.728908,"100.40,83.33"
2024-05-28_13-12-05.761625,"88.37,48.03"
2024-05-28_13-12-05.794293,"110.80,58.33"
2024-05-28_13-12-05.826966,"90.06,56.12"
2024-05-28_13-12-05.855766,"75.33,57.21"
2024-05-28_13-12-05.888536,"62.04,62.23"
2024-05-28_13-12-05.921311,"83.82,75.62"
2024-05-28_13-12-05.954080,"71.07,96.67"
2024-05-28_13-12-05.986858,"86.24,84.90"
2024-05-28_13-12-06.019565,"90.41,86.13"
2024-05-28_13-12-06.052293,"94.34,92.80"
2024-05-28_13-12-06.081068,"93.79,82.37"
2024-05-28_13-12-06.113845,"102.20,69.20"
2024-05-28_13-12-06.146580,"99.45,52.69"
2024-05-28_13-12-06.179425,"96.15,55.13"
2024-05-28_13-12-06.212182,"93.49,60.46"
2024-05-28_13-12-06.244866,"62.59,58.39"
2024-05-28_13-12-06.277583,"80.49,59.89"
2024-05-28_13-12-06.306346,"75.82,80.92"
2024-05-28_13-12-06.339116,"85.87,90.23"
2024-05-28_13-12-06.371874,"72.81,94.82"
2024-05-28_13-12-06.404655,"84.93,88.83"
2024-05-28_13-12-06.437490,"94.05,80.42"
2024-05-28_13-12-06.470160,"90.99,78.67"
2024-05-28_13-12-06.502870,"96.27,49.38"
2024-05-28_13-12-06.531670,"114.10,57.93"
2024-05-28_13-12-06.564487,"94.51,55.47"
2024-05-28_13-12-06.597176,"80.02,57.86"
2024-05-28_13-12-06.629910,"63.35,60.49"
2024-05-28_13-12-06.662740,"85.67,80.38"
2024-05-28_13-12-06.695440,"65.13,82.50"
2024-05-28_13-12-06.728171,"78.79,86.23"
2024-05-28_13-12-06.756899,"79.62,86.03"
2024-05-28_13-12-06.789712,"93.44,85.20"
2024-05-28_13-12-06.822594,"90.68,87.86"
2024-05-28_13-12-06.855246,"105.57,70.13"
2024-05-28_13-12-06.888036,"100.31,52.48"
2024-05-28_13-12-06.920831,"97.40,55.03"
2024-05-28_13-12-06.953506,"98.04,59.45"
2024-05-28_13-12-06.986199,"65.22,57.94"
2024-05-28_13-12-07.015048,"70.21,56.61"
2024-05-28_13-12-07.047804,"77.93,83.00"
2024-05-28_13-12-07.080516,"81.79,94.07"
2024-05-28_13-12-07.113373,"69.57,94.29"
2024-05-28_13-12-07.146052,"87.71,81.28"
2024-05-28_13-12-07.178761,"91.53,83.43"
2024-05-28_13-12-07.211465,"91.16,79.78"
2024-05-28_13-12-07.240348,"99.63,65.58"
2024-05-28_13-12-07.273042,"93.24,58.65"
2024-05-28_13-12-07.305780,"93.05,55.96"
2024-05-28_13-12-07.338621,"91.78,57.24"
2024-05-28_13-12-07.371443,"66.35,59.80"
2024-05-28_13-12-07.404088,"79.99,49.54"
2024-05-28_13-12-07.436759,"67.46,89.84"
2024-05-28_13-12-07.465544,"73.29,82.55"
2024-05-28_13-12-07.498398,"84.91,87.57"
2024-05-28_13-12-07.531099,"91.00,86.84"
2024-05-28_13-12-07.563917,"86.34,86.38"
2024-05-28_13-12-07.596623,"101.88,85.96"
2024-05-28_13-12-07.629389,"101.87,68.56"
2024-05-28_13-12-07.662047,"100.19,54.15"
2024-05-28_13-12-07.690831,"105.09,56.77"
2024-05-28_13-12-07.723787,"83.10,56.62"
2024-05-28_13-12-07.756455,"78.10,57.53"
2024-05-28_13-12-07.789168,"76.18,58.02"
2024-05-28_13-12-07.822013,"72.34,90.75"
2024-05-28_13-12-07.854655,"73.82,90.60"
2024-05-28_13-12-07.887361,"70.94,86.62"
2024-05-28_13-12-07.916136,"91.36,81.70"
2024-05-28_13-12-07.955035,"87.88,87.43"
2024-05-28_13-12-07.981989,"88.81,76.53"
2024-05-28_13-12-08.014489,"98.30,65.78"
2024-05-28_13-12-08.047238,"67.66,59.16"
2024-05-28_13-12-08.080043,"113.73,55.59"
2024-05-28_13-12-08.113308,"89.21,58.77"
2024-05-28_13-12-08.141566,"72.36,50.46"
2024-05-28_13-12-08.174202,"86.30,60.69"
2024-05-28_13-12-08.206971,"72.53,63.06"
2024-05-28_13-12-08.239940,"72.37,87.09"
2024-05-28_13-12-08.272549,"61.26,97.30"
2024-05-28_13-12-08.305237,"76.38,88.25"
2024-05-28_13-12-08.337904,"96.44,90.64"
2024-05-28_13-12-08.366712,"97.56,70.47"
2024-05-28_13-12-08.399542,"101.95,68.63"
2024-05-28_13-12-08.432299,"84.17,63.16"
2024-05-28_13-12-08.465129,"78.19,56.01"
2024-05-28_13-12-08.498144,"85.16,58.64"
2024-05-28_13-12-08.530807,"63.57,57.40"
2024-05-28_13-12-08.563433,"82.05,83.46"
2024-05-28_13-12-08.592036,"76.98,79.67"
2024-05-28_13-12-08.624797,"78.91,86.58"
2024-05-28_13-12-08.657588,"79.48,86.05"
2024-05-28_13-12-08.690341,"84.64,86.38"
2024-05-28_13-12-08.723179,"87.40,89.02"
2024-05-28_13-12-08.755933,"95.50,74.56"
2024-05-28_13-12-08.788498,"85.22,60.21"
2024-05-28_13-12-08.817324,"90.01,57.16"
2024-05-28_13-12-08.850126,"100.30,58.00"
2024-05-28_13-12-08.882923,"81.21,50.05"
2024-05-28_13-12-08.915753,"87.64,60.83"
2024-05-28_13-12-08.948436,"84.05,70.45"
2024-05-28_13-12-08.981090,"65.16,79.94"
2024-05-28_13-12-09.013919,"89.03,86.00"
2024-05-28_13-12-09.042614,"72.73,84.67"
2024-05-28_13-12-09.075421,"76.74,110.64"
2024-05-28_13-12-09.108152,"88.94,77.66"
2024-05-28_13-12-09.140911,"92.56,84.01"
2024-05-28_13-12-09.173717,"102.28,74.55"
2024-05-28_13-12-09.206499,"78.64,54.50"
2024-05-28_13-12-09.239117,"81.50,57.68"
2024-05-28_13-12-09.267874,"84.32,55.01"
2024-05-28_13-12-09.300649,"66.46,60.56"
2024-05-28_13-12-09.333538,"78.02,75.10"
2024-05-28_13-12-09.366218,"78.15,80.24"
2024-05-28_13-12-09.399005,"75.92,93.06"
2024-05-28_13-12-09.431810,"68.60,84.36"
2024-05-28_13-12-09.464538,"77.62,88.26"
2024-05-28_13-12-09.493251,"93.45,98.20"
2024-05-28_13-12-09.525969,"80.94,65.16"
2024-05-28_13-12-09.558729,"103.67,58.93"
2024-05-28_13-12-09.591456,"99.00,57.50"
2024-05-28_13-12-09.624486,"97.85,48.91"
2024-05-28_13-12-09.657091,"81.93,59.79"
2024-05-28_13-12-09.689697,"65.45,57.49"
2024-05-28_13-12-09.718473,"83.21,57.67"
2024-05-28_13-12-09.751341,"77.27,90.31"
2024-05-28_13-12-09.784307,"77.25,84.65"
2024-05-28_13-12-09.816823,"66.62,95.57"
2024-05-28_13-12-09.849634,"80.74,88.95"
2024-05-28_13-12-09.882346,"94.07,82.74"
2024-05-28_13-12-09.915269,"103.63,85.96"
2024-05-28_13-12-09.947840,"89.23,73.90"
2024-05-28_13-12-09.976563,"78.13,56.95"
2024-05-28_13-12-10.009346,"100.97,53.32"
2024-05-28_13-12-10.042186,"86.34,55.38"
2024-05-28_13-12-10.075052,"83.88,60.40"
2024-05-28_13-12-10.107684,"78.42,61.79"
2024-05-28_13-12-10.140300,"63.36,75.41"
2024-05-28_13-12-10.172980,"75.49,80.72"
2024-05-28_13-12-10.201938,"88.52,88.13"
2024-05-28_13-12-10.234744,"63.97,100.70"
2024-05-28_13-12-10.267384,"76.80,84.16"
2024-05-28_13-12-10.300106,"89.07,90.15"
2024-05-28_13-12-10.333109,"98.42,74.23"
2024-05-28_13-12-10.365952,"88.40,48.23"
2024-05-28_13-12-10.398388,"84.57,61.75"
2024-05-28_13-12-10.427150,"72.41,57.56"
2024-05-28_13-12-10.459911,"74.56,56.90"
2024-05-28_13-12-10.492702,"73.37,60.83"
2024-05-28_13-12-10.525448,"78.53,79.50"
2024-05-28_13-12-10.558181,"70.00,92.15"
2024-05-28_13-12-10.590908,"84.97,84.57"
2024-05-28_13-12-10.623600,"91.94,83.49"
2024-05-28_13-12-10.652433,"92.03,83.38"
2024-05-28_13-12-10.685163,"94.04,90.09"
2024-05-28_13-12-10.717922,"109.00,53.96"
2024-05-28_13-12-10.750932,"90.43,52.68"
2024-05-28_13-12-10.783568,"76.48,56.05"
2024-05-28_13-12-10.816194,"68.69,60.53"
2024-05-28_13-12-10.848872,"76.38,61.61"
2024-05-28_13-12-10.877697,"72.06,60.97"
2024-05-28_13-12-10.910446,"72.66,83.89"
2024-05-28_13-12-10.943192,"83.41,89.81"
2024-05-28_13-12-10.975971,"85.77,91.45"
2024-05-28_13-12-11.008788,"86.13,87.34"
2024-05-28_13-12-11.041471,"90.62,82.57"
2024-05-28_13-12-11.074218,"98.00,72.70"
2024-05-28_13-12-11.103017,"83.94,48.77"
2024-05-28_13-12-11.135789,"92.90,60.10"
2024-05-28_13-12-11.168589,"78.05,57.13"
2024-05-28_13-12-11.201298,"77.77,55.75"
2024-05-28_13-12-11.234096,"75.35,60.74"
2024-05-28_13-12-11.266777,"79.48,52.56"
2024-05-28_13-12-11.299473,"74.04,96.33"
2024-05-28_13-12-11.328288,"84.83,83.80"
2024-05-28_13-12-11.360997,"88.99,83.18"
2024-05-28_13-12-11.393805,"96.81,83.32"
2024-05-28_13-12-11.426593,"89.00,86.87"
2024-05-28_13-12-11.459405,"105.90,53.09"
2024-05-28_13-12-11.492098,"97.77,51.78"
2024-05-28_13-12-11.524807,"102.45,54.43"
2024-05-28_13-12-11.553543,"84.79,63.25"
2024-05-28_13-12-11.586309,"62.98,58.49"
2024-05-28_13-12-11.619051,"80.05,56.25"
2024-05-28_13-12-11.651936,"72.03,68.48"
2024-05-28_13-12-11.684665,"86.19,91.71"
2024-05-28_13-12-11.717362,"69.01,94.48"
2024-05-28_13-12-11.750112,"86.54,86.25"
2024-05-28_13-12-11.778828,"93.52,83.90"
2024-05-28_13-12-11.811614,"95.87,73.55"
2024-05-28_13-12-11.844368,"101.43,65.09"
2024-05-28_13-12-11.877148,"105.10,57.35"
2024-05-28_13-12-11.911839,"90.86,55.32"
2024-05-28_13-12-11.942772,"86.32,56.59"
2024-05-28_13-12-11.975386,"68.08,61.08"
2024-05-28_13-12-12.004160,"89.83,50.81"
2024-05-28_13-12-12.036935,"62.42,85.82"
2024-05-28_13-12-12.069787,"81.03,84.57"
2024-05-28_13-12-12.102528,"66.27,91.50"
2024-05-28_13-12-12.135268,"79.16,94.27"
2024-05-28_13-12-12.167989,"86.37,86.43"
2024-05-28_13-12-12.200707,"103.50,80.42"
2024-05-28_13-12-12.229588,"97.00,52.82"
2024-05-28_13-12-12.262250,"98.58,54.06"
2024-05-28_13-12-12.294957,"102.42,59.26"
2024-05-28_13-12-12.327718,"70.94,57.42"
2024-05-28_13-12-12.360508,"69.37,59.31"
2024-05-28_13-12-12.393259,"73.54,58.31"
2024-05-28_13-12-12.425956,"70.55,77.60"
2024-05-28_13-12-12.454709,"80.87,96.49"
2024-05-28_13-12-12.487464,"74.07,72.90"
2024-05-28_13-12-12.520248,"86.75,92.99"
2024-05-28_13-12-12.553000,"95.91,78.41"
2024-05-28_13-12-12.585768,"101.74,87.65"
2024-05-28_13-12-12.618569,"106.32,59.08"
2024-05-28_13-12-12.651235,"89.97,54.87"
2024-05-28_13-12-12.683955,"106.44,55.02"
2024-05-28_13-12-12.712759,"73.85,60.16"
2024-05-28_13-12-12.745527,"79.95,52.39"
2024-05-28_13-12-12.778254,"71.96,65.17"
2024-05-28_13-12-12.811078,"70.78,84.43"
2024-05-28_13-12-12.843871,"86.51,87.26"
2024-05-28_13-12-12.876530,"83.79,75.00"
2024-05-28_13-12-12.909271,"89.47,87.58"
2024-05-28_13-12-12.938063,"105.16,84.86"
2024-05-28_13-12-12.970814,"104.70,70.38"
2024-05-28_13-12-13.003581,"101.63,54.34"
2024-05-28_13-12-13.036439,"110.61,57.20"
2024-05-28_13-12-13.069201,"78.30,56.37"
2024-05-28_13-12-13.101892,"72.59,57.96"
2024-05-28_13-12-13.134522,"74.12,58.39"
2024-05-28_13-12-13.163363,"76.18,61.25"
2024-05-28_13-12-13.196098,"77.90,95.47"
2024-05-28_13-12-13.228994,"70.05,86.21"
2024-05-28_13-12-13.261727,"82.86,84.43"
2024-05-28_13-12-13.294463,"87.37,82.43"
2024-05-28_13-12-13.327108,"92.63,85.25"
2024-05-28_13-12-13.359884,"112.09,73.72"
2024-05-28_13-12-13.388621,"78.81,55.54"
2024-05-28_13-12-13.421404,"109.50,55.17"
2024-05-28_13-12-13.454172,"80.84,58.91"
2024-05-28_13-12-13.486942,"67.65,50.52"
2024-05-28_13-12-13.519697,"78.81,64.62"
2024-05-28_13-12-13.552434,"71.02,63.62"
2024-05-28_13-12-13.585144,"81.89,87.98"
2024-05-28_13-12-13.613951,"81.59,88.17"
2024-05-28_13-12-13.646664,"83.30,84.66"
2024-05-28_13-12-13.679504,"94.93,88.60"
2024-05-28_13-12-13.712204,"87.98,72.23"
2024-05-28_13-12-13.745034,"104.90,71.62"
2024-05-28_13-12-13.777760,"83.98,58.64"
2024-05-28_13-12-13.810427,"87.54,55.94"
2024-05-28_13-12-13.839336,"86.22,59.10"
2024-05-28_13-12-13.872539,"76.74,56.22"
2024-05-28_13-12-13.904799,"76.33,71.30"
2024-05-28_13-12-13.937634,"69.31,79.50"
2024-05-28_13-12-13.970709,"77.02,89.17"
2024-05-28_13-12-14.003170,"74.99,92.16"
2024-05-28_13-12-14.036016,"78.95,88.40"
2024-05-28_13-12-14.071261,"80.48,96.29"
2024-05-28_13-12-14.097294,"84.53,62.18"
2024-05-28_13-12-14.130213,"88.69,57.53"
2024-05-28_13-12-14.162845,"108.07,54.42"
2024-05-28_13-12-14.195536,"97.05,57.40"
2024-05-28_13-12-14.228290,"68.96,53.64"
2024-05-28_13-12-14.260987,"67.44,62.67"
2024-05-28_13-12-14.289808,"75.96,83.39"
2024-05-28_13-12-14.322572,"73.26,95.21"
2024-05-28_13-12-14.355313,"74.08,89.03"
2024-05-28_13-12-14.388172,"82.03,90.60"
2024-05-28_13-12-14.420891,"91.34,95.87"
2024-05-28_13-12-14.453578,"92.83,82.51"
2024-05-28_13-12-14.486273,"98.84,70.94"
2024-05-28_13-12-14.520576,"97.27,57.58"
2024-05-28_13-12-14.547885,"99.85,54.98"
2024-05-28_13-12-14.580659,"88.15,56.78"
2024-05-28_13-12-14.613355,"65.37,55.98"
2024-05-28_13-12-14.646216,"67.77,58.72"
2024-05-28_13-12-14.678922,"75.21,101.07"
2024-05-28_13-12-14.711588,"79.55,83.09"
2024-05-28_13-12-14.740369,"89.35,86.49"
2024-05-28_13-12-14.773169,"74.15,79.31"
2024-05-28_13-12-14.805932,"87.52,88.94"
2024-05-28_13-12-14.838673,"105.85,87.65"
2024-05-28_13-12-14.871430,"91.86,73.28"
2024-05-28_13-12-14.904273,"109.12,53.41"
2024-05-28_13-12-14.936890,"102.38,58.22"
2024-05-28_13-12-14.965597,"82.90,50.36"
2024-05-28_13-12-14.998419,"70.83,62.50"
2024-05-28_13-12-15.031273,"70.64,59.55"
2024-05-28_13-12-15.064030,"66.98,97.58"
2024-05-28_13-12-15.096782,"77.39,93.12"
2024-05-28_13-12-15.129480,"78.25,81.29"
2024-05-28_13-12-15.162193,"100.91,99.54"
2024-05-28_13-12-15.190932,"94.16,76.75"
2024-05-28_13-12-15.223733,"96.44,88.83"
2024-05-28_13-12-15.256477,"111.34,59.50"
2024-05-28_13-12-15.289280,"96.51,54.11"
2024-05-28_13-12-15.322001,"104.97,54.80"
2024-05-28_13-12-15.354872,"75.88,55.80"
2024-05-28_13-12-15.387537,"67.61,56.92"
2024-05-28_13-12-15.416283,"84.86,56.67"
2024-05-28_13-12-15.448985,"71.70,88.02"
2024-05-28_13-12-15.481742,"83.38,87.57"
2024-05-28_13-12-15.514524,"72.55,82.30"
2024-05-28_13-12-15.547318,"88.13,91.28"
2024-05-28_13-12-15.580186,"106.71,89.66"
2024-05-28_13-12-15.612755,"82.16,71.35"
2024-05-28_13-12-15.645468,"108.21,54.31"
2024-05-28_13-12-15.674294,"106.77,56.69"
2024-05-28_13-12-15.707283,"90.72,49.95"
2024-05-28_13-12-15.739886,"77.56,60.16"
2024-05-28_13-12-15.772649,"72.45,63.39"
2024-05-28_13-12-15.805463,"70.60,87.66"
2024-05-28_13-12-15.838185,"76.82,93.80"
2024-05-28_13-12-15.870759,"72.71,83.30"
2024-05-28_13-12-15.899594,"94.19,96.02"
2024-05-28_13-12-15.932346,"92.81,80.72"
2024-05-28_13-12-15.965145,"94.94,87.75"
2024-05-28_13-12-15.997866,"102.26,59.74"
2024-05-28_13-12-16.031768,"96.46,54.48"
2024-05-28_13-12-16.063366,"101.21,55.53"
2024-05-28_13-12-16.096132,"74.49,56.71"
2024-05-28_13-12-16.124864,"66.70,57.33"
2024-05-28_13-12-16.157634,"69.81,75.03"
2024-05-28_13-12-16.190393,"72.75,92.80"
2024-05-28_13-12-16.223188,"82.90,89.11"
2024-05-28_13-12-16.255933,"71.63,81.43"
2024-05-28_13-12-16.288674,"91.05,90.12"
2024-05-28_13-12-16.321389,"101.46,86.94"
2024-05-28_13-12-16.350173,"85.20,70.34"
2024-05-28_13-12-16.382931,"109.10,53.26"
2024-05-28_13-12-16.415738,"104.42,58.58"
2024-05-28_13-12-16.448475,"87.13,48.29"
2024-05-28_13-12-16.481210,"72.71,63.63"
2024-05-28_13-12-16.513952,"70.10,60.70"
2024-05-28_13-12-16.546659,"68.29,89.14"
2024-05-28_13-12-16.575484,"82.87,88.92"
2024-05-28_13-12-16.608174,"77.76,80.14"
2024-05-28_13-12-16.640967,"85.16,81.57"
2024-05-28_13-12-16.673734,"90.47,79.52"
2024-05-28_13-12-16.706502,"93.40,87.36"
2024-05-28_13-12-16.739245,"106.78,59.57"
2024-05-28_13-12-16.771918,"96.29,54.08"
2024-05-28_13-12-16.800749,"109.58,54.32"
2024-05-28_13-12-16.833517,"78.97,55.54"
2024-05-28_13-12-16.866267,"66.72,56.32"
2024-05-28_13-12-16.899033,"73.32,76.39"
2024-05-28_13-12-16.931813,"72.63,94.40"
2024-05-28_13-12-16.964517,"82.81,87.72"
2024-05-28_13-12-16.997225,"87.71,84.02"
2024-05-28_13-12-17.026004,"92.10,92.99"
2024-05-28_13-12-17.058875,"105.92,88.08"
2024-05-28_13-12-17.091600,"81.31,71.34"
2024-05-28_13-12-17.124301,"83.69,59.75"
2024-05-28_13-12-17.157094,"106.57,57.49"
2024-05-28_13-12-17.189862,"103.22,47.69"
2024-05-28_13-12-17.222541,"79.62,62.06"
2024-05-28_13-12-17.251265,"57.55,58.74"
2024-05-28_13-12-17.284065,"74.88,57.58"
2024-05-28_13-12-17.316846,"77.14,90.71"
2024-05-28_13-12-17.349664,"76.97,79.67"
2024-05-28_13-12-17.382432,"82.68,94.51"
2024-05-28_13-12-17.415135,"86.24,85.42"
2024-05-28_13-12-17.447821,"98.62,81.79"
2024-05-28_13-12-17.476616,"104.26,73.64"
2024-05-28_13-12-17.509387,"95.09,55.45"
2024-05-28_13-12-17.542154,"108.87,55.87"
2024-05-28_13-12-17.574963,"76.10,54.23"
2024-05-28_13-12-17.607696,"66.57,56.38"
2024-05-28_13-12-17.640442,"84.02,60.00"
2024-05-28_13-12-17.673133,"71.58,89.31"
2024-05-28_13-12-17.701890,"87.19,85.52"
2024-05-28_13-12-17.734669,"72.79,83.84"
2024-05-28_13-12-17.767451,"89.76,83.54"
2024-05-28_13-12-17.800204,"108.55,86.78"
2024-05-28_13-12-17.832939,"88.32,81.86"
2024-05-28_13-12-17.865786,"107.02,54.96"
2024-05-28_13-12-17.898427,"86.31,57.55"
2024-05-28_13-12-17.927176,"96.72,47.96"
2024-05-28_13-12-17.959935,"77.92,63.14"
2024-05-28_13-12-17.992691,"72.74,60.54"
2024-05-28_13-12-18.025481,"73.86,60.46"
2024-05-28_13-12-18.058290,"78.29,91.06"
2024-05-28_13-12-18.091052,"78.19,80.04"
2024-05-28_13-12-18.123732,"87.01,92.19"
2024-05-28_13-12-18.152470,"92.05,81.93"
2024-05-28_13-12-18.185245,"93.91,84.54"
2024-05-28_13-12-18.218014,"106.73,74.10"
2024-05-28_13-12-18.250773,"96.49,54.13"
2024-05-28_13-12-18.283548,"107.03,54.73"
2024-05-28_13-12-18.316410,"75.30,55.16"
2024-05-28_13-12-18.349023,"66.34,58.35"
2024-05-28_13-12-18.377763,"70.71,75.19"
2024-05-28_13-12-18.410532,"72.93,90.34"
2024-05-28_13-12-18.443331,"83.86,90.03"
2024-05-28_13-12-18.476099,"70.61,82.81"
2024-05-28_13-12-18.508872,"88.10,89.86"
2024-05-28_13-12-18.541656,"103.59,90.57"
2024-05-28_13-12-18.574377,"84.30,71.84"
2024-05-28_13-12-18.607034,"108.67,53.58"
2024-05-28_13-12-18.635820,"104.42,57.59"
2024-05-28_13-12-18.668575,"85.08,49.36"
2024-05-28_13-12-18.701392,"75.43,61.26"
2024-05-28_13-12-18.734195,"73.06,58.70"
2024-05-28_13-12-18.766974,"77.72,89.05"
2024-05-28_13-12-18.799603,"78.70,93.10"
2024-05-28_13-12-18.832390,"81.25,78.77"
2024-05-28_13-12-18.861139,"99.28,92.87"
2024-05-28_13-12-18.893905,"91.93,81.03"
2024-05-28_13-12-18.926703,"93.48,87.10"
2024-05-28_13-12-18.959440,"108.60,59.39"
2024-05-28_13-12-18.992199,"95.99,54.72"
2024-05-28_13-12-19.024899,"103.24,54.14"
2024-05-28_13-12-19.057626,"74.66,57.34"
2024-05-28_13-12-19.086471,"66.73,57.15"
2024-05-28_13-12-19.119170,"83.22,58.15"
2024-05-28_13-12-19.151936,"72.44,88.50"
2024-05-28_13-12-19.184702,"82.83,88.65"
2024-05-28_13-12-19.217469,"70.59,82.10"
2024-05-28_13-12-19.250200,"88.80,91.16"
2024-05-28_13-12-19.282914,"110.02,86.41"
2024-05-28_13-12-19.311673,"94.20,70.22"
2024-05-28_13-12-19.344444,"109.11,53.12"
2024-05-28_13-12-19.377287,"106.20,58.84"
2024-05-28_13-12-19.410049,"86.66,48.34"
2024-05-28_13-12-19.442771,"74.36,60.68"
2024-05-28_13-12-19.475489,"72.24,60.07"
2024-05-28_13-12-19.508190,"69.73,84.93"
2024-05-28_13-12-19.536967,"85.60,88.43"
2024-05-28_13-12-19.569733,"79.57,79.26"
2024-05-28_13-12-19.602567,"95.11,92.84"
2024-05-28_13-12-19.635283,"89.92,79.82"
2024-05-28_13-12-19.668057,"93.83,87.04"
2024-05-28_13-12-19.700788,"110.23,59.37"
2024-05-28_13-12-19.733480,"95.43,53.67"
2024-05-28_13-12-19.762278,"100.80,54.73"
2024-05-28_13-12-19.795041,"72.58,55.69"
2024-05-28_13-12-19.827809,"67.29,58.29"
2024-05-28_13-12-19.860553,"82.23,57.66"
2024-05-28_13-12-19.893336,"73.21,86.71"
2024-05-28_13-12-19.926098,"85.30,86.34"
2024-05-28_13-12-19.958765,"72.35,90.16"
2024-05-28_13-12-19.987646,"93.37,87.68"
2024-05-28_13-12-20.020551,"107.22,91.54"
2024-05-28_13-12-20.053151,"93.29,56.24"
2024-05-28_13-12-20.087092,"109.13,54.58"
2024-05-28_13-12-20.118704,"77.82,60.14"
2024-05-28_13-12-20.151351,"70.88,48.85"
2024-05-28_13-12-20.184074,"70.03,62.64"
2024-05-28_13-12-20.212846,"81.93,63.07"
2024-05-28_13-12-20.245594,"69.71,76.50"
2024-05-28_13-12-20.278456,"81.94,90.61"
2024-05-28_13-12-20.311263,"77.15,83.70"
2024-05-28_13-12-20.343973,"92.38,94.25"
2024-05-28_13-12-20.376668,"95.29,69.21"
2024-05-28_13-12-20.409381,"106.23,68.72"
2024-05-28_13-12-20.438169,"109.18,57.85"
2024-05-28_13-12-20.470923,"98.24,54.60"
2024-05-28_13-12-20.503703,"87.18,58.82"
2024-05-28_13-12-20.536442,"64.14,56.34"
2024-05-28_13-12-20.569293,"82.12,85.88"
2024-05-28_13-12-20.601962,"78.07,78.76"
2024-05-28_13-12-20.634649,"83.72,85.17"
2024-05-28_13-12-20.663443,"81.43,83.53"
2024-05-28_13-12-20.696224,"84.53,89.68"
2024-05-28_13-12-20.728977,"102.59,82.88"
2024-05-28_13-12-20.761751,"102.85,72.15"
2024-05-28_13-12-20.794540,"89.09,54.85"
2024-05-28_13-12-20.827279,"106.36,53.87"
2024-05-28_13-12-20.859984,"93.56,58.17"
2024-05-28_13-12-20.888718,"67.71,51.68"
2024-05-28_13-12-20.921500,"68.56,63.09"
2024-05-28_13-12-20.954255,"74.37,81.71"
2024-05-28_13-12-20.987008,"73.95,92.81"
2024-05-28_13-12-21.019795,"75.84,89.86"
2024-05-28_13-12-21.052594,"83.02,83.89"
2024-05-28_13-12-21.085250,"99.18,85.86"
2024-05-28_13-12-21.114009,"95.11,78.32"
2024-05-28_13-12-21.146770,"98.96,69.48"
2024-05-28_13-12-21.179553,"106.79,57.33"
2024-05-28_13-12-21.212377,"101.25,56.05"
2024-05-28_13-12-21.245061,"79.41,57.12"
2024-05-28_13-12-21.277819,"62.97,56.59"
2024-05-28_13-12-21.310521,"77.89,80.14"
2024-05-28_13-12-21.339295,"77.97,96.64"
2024-05-28_13-12-21.372058,"71.70,83.90"
2024-05-28_13-12-21.404829,"86.15,83.99"
2024-05-28_13-12-21.437704,"88.04,79.43"
2024-05-28_13-12-21.470395,"98.73,86.76"
2024-05-28_13-12-21.503203,"98.68,58.72"
2024-05-28_13-12-21.535816,"91.04,56.08"
2024-05-28_13-12-21.564604,"107.48,54.19"
2024-05-28_13-12-21.597388,"76.81,59.55"
2024-05-28_13-12-21.630115,"81.04,50.57"
2024-05-28_13-12-21.662892,"74.60,82.74"
2024-05-28_13-12-21.695692,"69.45,83.91"
2024-05-28_13-12-21.728451,"86.58,88.90"
2024-05-28_13-12-21.761111,"82.08,84.18"
2024-05-28_13-12-21.789942,"89.96,83.05"
2024-05-28_13-12-21.822746,"95.71,89.23"
2024-05-28_13-12-21.855428,"103.82,55.06"
2024-05-28_13-12-21.888226,"99.86,53.83"
2024-05-28_13-12-21.920975,"103.60,57.55"
2024-05-28_13-12-21.953732,"74.12,57.85"
2024-05-28_13-12-21.986430,"69.83,59.17"
2024-05-28_13-12-22.015177,"84.66,58.70"
2024-05-28_13-12-22.047912,"73.81,77.44"
2024-05-28_13-12-22.080742,"82.34,93.97"
2024-05-28_13-12-22.113486,"73.38,83.39"
2024-05-28_13-12-22.146217,"89.31,83.06"
2024-05-28_13-12-22.179013,"92.88,84.20"
2024-05-28_13-12-22.211725,"104.42,64.97"
2024-05-28_13-12-22.244440,"113.83,57.75"
2024-05-28_13-12-22.273225,"92.07,55.93"
2024-05-28_13-12-22.305999,"86.40,55.77"
2024-05-28_13-12-22.338783,"63.34,59.81"
2024-05-28_13-12-22.371555,"89.31,52.28"
2024-05-28_13-12-22.404307,"64.89,83.56"
2024-05-28_13-12-22.437014,"82.82,82.57"
2024-05-28_13-12-22.469729,"86.36,87.72"
2024-05-28_13-12-22.498520,"95.94,88.35"
2024-05-28_13-12-22.531304,"88.30,83.94"
2024-05-28_13-12-22.564032,"102.88,69.58"
2024-05-28_13-12-22.596807,"90.00,52.51"
2024-05-28_13-12-22.629589,"94.58,53.78"
2024-05-28_13-12-22.662321,"87.25,62.46"
2024-05-28_13-12-22.695006,"62.77,58.87"
2024-05-28_13-12-22.723794,"78.90,56.91"
2024-05-28_13-12-22.756587,"71.30,78.24"
2024-05-28_13-12-22.789355,"94.89,90.01"
2024-05-28_13-12-22.822099,"83.18,94.30"
2024-05-28_13-12-22.854849,"84.20,88.63"
2024-05-28_13-12-22.887578,"93.22,83.21"
2024-05-28_13-12-22.920302,"101.58,72.58"
2024-05-28_13-12-22.949075,"100.14,46.93"
2024-05-28_13-12-22.981845,"109.11,57.30"
2024-05-28_13-12-23.014665,"82.95,57.10"
2024-05-28_13-12-23.047403,"74.28,57.03"
2024-05-28_13-12-23.080214,"73.93,68.50"
2024-05-28_13-12-23.112904,"75.87,95.13"
2024-05-28_13-12-23.145594,"81.55,95.06"
2024-05-28_13-12-23.174377,"77.41,85.15"
2024-05-28_13-12-23.207157,"90.58,90.35"
2024-05-28_13-12-23.239955,"94.22,78.58"
2024-05-28_13-12-23.272703,"89.23,81.64"
2024-05-28_13-12-23.305478,"98.14,53.13"
2024-05-28_13-12-23.338196,"98.24,51.60"
2024-05-28_13-12-23.370894,"92.11,55.14"
2024-05-28_13-12-23.399696,"70.82,61.91"
2024-05-28_13-12-23.432475,"76.28,58.92"
2024-05-28_13-12-23.465217,"66.58,88.43"
2024-05-28_13-12-23.497995,"78.61,82.87"
2024-05-28_13-12-23.530764,"75.87,85.76"
2024-05-28_13-12-23.563459,"98.11,98.62"
2024-05-28_13-12-23.596205,"94.26,79.21"
2024-05-28_13-12-23.624968,"103.42,80.55"
2024-05-28_13-12-23.657728,"96.82,57.65"
2024-05-28_13-12-23.690521,"108.79,47.37"
2024-05-28_13-12-23.723269,"98.28,59.05"
2024-05-28_13-12-23.756039,"57.83,58.74"
2024-05-28_13-12-23.788770,"68.31,56.75"
2024-05-28_13-12-23.821458,"77.43,75.87"
2024-05-28_13-12-23.850229,"84.61,80.29"
2024-05-28_13-12-23.883040,"75.26,94.43"
2024-05-28_13-12-23.915768,"85.93,89.80"
2024-05-28_13-12-23.948606,"96.63,81.21"
2024-05-28_13-12-23.981329,"105.95,82.90"
2024-05-28_13-12-24.014066,"97.65,71.44"
2024-05-28_13-12-24.046766,"105.77,53.59"
2024-05-28_13-12-24.075564,"94.80,52.68"
2024-05-28_13-12-24.108325,"69.03,56.99"
2024-05-28_13-12-24.141090,"75.85,63.43"
2024-05-28_13-12-24.173875,"77.06,61.84"
2024-05-28_13-12-24.206587,"78.90,88.57"
2024-05-28_13-12-24.239630,"85.63,80.72"
2024-05-28_13-12-24.272141,"84.77,91.83"
2024-05-28_13-12-24.300926,"96.68,91.21"
2024-05-28_13-12-24.333634,"89.56,58.14"
2024-05-28_13-12-24.366437,"106.41,54.22"
2024-05-28_13-12-24.399179,"103.20,57.61"
2024-05-28_13-12-24.431976,"79.09,52.19"
2024-05-28_13-12-24.464670,"74.48,60.77"
2024-05-28_13-12-24.497382,"82.36,59.70"
2024-05-28_13-12-24.526097,"66.49,78.31"
2024-05-28_13-12-24.558973,"89.52,87.03"
2024-05-28_13-12-24.591687,"66.05,91.16"
2024-05-28_13-12-24.624447,"95.67,92.16"
2024-05-28_13-12-24.657185,"97.42,71.57"
2024-05-28_13-12-24.690049,"105.05,68.39"
2024-05-28_13-12-24.722689,"107.03,57.95"
2024-05-28_13-12-24.751404,"93.79,54.38"
2024-05-28_13-12-24.784188,"81.24,56.49"
2024-05-28_13-12-24.816994,"63.68,56.93"
2024-05-28_13-12-24.849738,"79.62,75.00"
2024-05-28_13-12-24.882482,"76.49,95.79"
2024-05-28_13-12-24.915294,"84.40,84.47"
2024-05-28_13-12-24.947965,"84.63,87.29"
2024-05-28_13-12-24.980661,"88.82,81.36"
2024-05-28_13-12-25.009564,"100.06,82.27"
2024-05-28_13-12-25.042291,"105.34,60.66"
2024-05-28_13-12-25.075052,"90.31,55.24"
2024-05-28_13-12-25.107842,"106.40,54.57"
2024-05-28_13-12-25.140554,"75.27,61.19"
2024-05-28_13-12-25.173245,"80.68,51.40"
2024-05-28_13-12-25.205962,"71.52,63.15"
2024-05-28_13-12-25.234773,"71.73,84.65"
2024-05-28_13-12-25.267588,"85.15,88.17"
2024-05-28_13-12-25.300307,"89.25,94.75"
2024-05-28_13-12-25.333113,"91.10,84.43"
2024-05-28_13-12-25.365882,"101.72,81.13"
2024-05-28_13-12-25.398584,"94.95,53.12"
2024-05-28_13-12-25.431297,"101.33,53.13"
2024-05-28_13-12-25.460054,"100.53,59.28"
2024-05-28_13-12-25.492801,"66.88,57.55"
2024-05-28_13-12-25.525627,"70.39,58.48"
2024-05-28_13-12-25.558355,"82.25,89.50"
2024-05-28_13-12-25.591180,"79.42,90.53"
2024-05-28_13-12-25.623847,"75.58,98.26"
2024-05-28_13-12-25.656561,"61.09,92.34"
2024-05-28_13-12-25.685348,"91.46,82.17"
2024-05-28_13-12-25.718094,"80.74,77.67"
2024-05-28_13-12-25.750887,"97.99,67.01"
2024-05-28_13-12-25.783813,"113.27,58.19"
2024-05-28_13-12-25.816431,"92.67,55.32"
2024-05-28_13-12-25.849162,"77.69,59.13"
2024-05-28_13-12-25.881861,"61.66,61.65"
2024-05-28_13-12-25.910629,"81.41,74.33"
2024-05-28_13-12-25.943407,"72.99,97.70"
2024-05-28_13-12-25.976191,"70.45,85.53"
2024-05-28_13-12-26.008950,"88.43,82.35"
2024-05-28_13-12-26.041711,"98.49,82.95"
2024-05-28_13-12-26.074460,"93.72,80.08"
2024-05-28_13-12-26.107160,"107.19,52.81"
2024-05-28_13-12-26.135925,"99.41,52.20"
2024-05-28_13-12-26.168777,"96.46,55.52"
2024-05-28_13-12-26.201467,"70.75,62.01"
2024-05-28_13-12-26.234334,"76.93,58.53"
2024-05-28_13-12-26.267014,"71.80,63.99"
2024-05-28_13-12-26.299732,"74.35,81.03"
2024-05-28_13-12-26.332441,"89.00,87.03"
2024-05-28_13-12-26.361227,"88.11,96.81"
2024-05-28_13-12-26.393999,"82.05,77.68"
2024-05-28_13-12-26.426771,"101.40,80.84"
2024-05-28_13-12-26.459524,"97.02,58.97"
2024-05-28_13-12-26.492313,"107.44,47.09"
2024-05-28_13-12-26.525037,"97.93,57.80"
2024-05-28_13-12-26.557735,"58.98,59.26"
2024-05-28_13-12-26.586476,"68.62,59.79"
2024-05-28_13-12-26.619300,"77.85,74.95"
2024-05-28_13-12-26.652069,"79.21,83.01"
2024-05-28_13-12-26.684894,"68.57,95.79"
2024-05-28_13-12-26.717562,"84.23,80.98"
2024-05-28_13-12-26.750330,"92.90,80.85"
2024-05-28_13-12-26.783075,"102.58,81.03"
2024-05-28_13-12-26.811790,"96.91,53.96"
2024-05-28_13-12-26.844552,"106.66,54.75"
2024-05-28_13-12-26.877319,"98.31,53.05"
2024-05-28_13-12-26.910093,"70.21,58.50"
2024-05-28_13-12-26.942860,"76.13,61.97"
2024-05-28_13-12-26.975593,"76.81,62.09"
2024-05-28_13-12-27.008315,"75.31,91.56"
2024-05-28_13-12-27.037084,"72.94,82.50"
2024-05-28_13-12-27.069880,"88.14,93.35"
2024-05-28_13-12-27.102677,"107.17,89.65"
2024-05-28_13-12-27.135496,"86.49,71.86"
2024-05-28_13-12-27.168204,"95.51,54.07"
2024-05-28_13-12-27.200950,"107.45,57.68"
2024-05-28_13-12-27.233812,"88.54,49.32"
2024-05-28_13-12-27.262489,"80.56,59.70"
2024-05-28_13-12-27.295213,"83.36,60.50"
2024-05-28_13-12-27.327923,"66.88,80.41"
2024-05-28_13-12-27.361546,"85.17,88.57"
2024-05-28_13-12-27.393885,"53.91,87.95"
2024-05-28_13-12-27.426577,"77.00,101.56"
2024-05-28_13-12-27.459082,"79.02,83.22"
2024-05-28_13-12-27.487693,"96.78,73.46"
2024-05-28_13-12-27.520423,"108.99,57.97"
2024-05-28_13-12-27.553650,"96.54,54.64"
2024-05-28_13-12-27.586370,"89.35,56.99"
2024-05-28_13-12-27.618799,"76.35,55.84"
2024-05-28_13-12-27.651721,"80.52,103.14"
2024-05-28_13-12-27.684347,"75.54,86.02"
2024-05-28_13-12-27.712992,"79.46,87.43"
2024-05-28_13-12-27.745817,"67.21,94.84"
2024-05-28_13-12-27.778515,"79.96,82.63"
2024-05-28_13-12-27.811282,"101.07,84.66"
2024-05-28_13-12-27.844048,"104.32,74.79"
2024-05-28_13-12-27.876868,"90.59,54.81"
2024-05-28_13-12-27.909511,"103.71,55.05"
2024-05-28_13-12-27.938278,"82.65,59.16"
2024-05-28_13-12-27.971030,"66.91,52.19"
2024-05-28_13-12-28.003791,"75.26,68.66"
2024-05-28_13-12-28.036557,"68.85,85.02"
2024-05-28_13-12-28.069338,"83.82,88.49"
2024-05-28_13-12-28.102151,"81.01,85.34"
2024-05-28_13-12-28.134814,"87.74,85.02"
2024-05-28_13-12-28.164023,"98.97,81.27"
2024-05-28_13-12-28.196405,"101.43,55.18"
2024-05-28_13-12-28.229201,"88.13,54.59"
2024-05-28_13-12-28.261965,"91.23,59.07"
2024-05-28_13-12-28.294653,"69.56,59.39"
2024-05-28_13-12-28.327392,"70.15,58.20"
2024-05-28_13-12-28.360104,"82.15,59.40"
2024-05-28_13-12-28.388871,"83.40,93.86"
2024-05-28_13-12-28.421644,"65.16,85.08"
2024-05-28_13-12-28.454405,"82.12,85.81"
2024-05-28_13-12-28.487143,"95.89,81.33"
2024-05-28_13-12-28.519928,"93.75,79.77"
2024-05-28_13-12-28.552669,"98.14,65.20"
2024-05-28_13-12-28.585394,"111.29,57.86"
2024-05-28_13-12-28.618087,"90.96,56.82"
2024-05-28_13-12-28.646895,"76.68,56.53"
2024-05-28_13-12-28.679735,"79.86,56.52"
2024-05-28_13-12-28.712487,"70.89,62.97"
2024-05-28_13-12-28.745190,"80.68,95.93"
2024-05-28_13-12-28.777967,"87.39,80.76"
2024-05-28_13-12-28.810679,"89.40,87.90"
2024-05-28_13-12-28.843374,"97.49,80.84"
2024-05-28_13-12-28.872245,"98.39,82.62"
2024-05-28_13-12-28.904950,"108.34,54.47"
2024-05-28_13-12-28.937725,"102.43,52.96"
2024-05-28_13-12-28.970490,"80.67,56.67"
2024-05-28_13-12-29.003304,"63.33,61.15"
2024-05-28_13-12-29.036052,"86.82,58.79"
2024-05-28_13-12-29.068663,"68.89,82.95"
2024-05-28_13-12-29.097507,"78.26,83.06"
2024-05-28_13-12-29.130238,"85.35,88.21"
2024-05-28_13-12-29.163012,"99.80,92.20"
2024-05-28_13-12-29.195785,"84.67,78.73"
2024-05-28_13-12-29.228552,"107.44,69.14"
2024-05-28_13-12-29.261290,"100.70,57.35"
2024-05-28_13-12-29.293970,"99.12,46.74"
2024-05-28_13-12-29.322829,"84.24,58.91"
2024-05-28_13-12-29.355617,"74.05,60.35"
2024-05-28_13-12-29.388384,"69.59,99.35"
2024-05-28_13-12-29.421114,"82.92,89.35"
2024-05-28_13-12-29.453881,"76.41,82.79"
2024-05-28_13-12-29.486584,"93.17,101.39"
2024-05-28_13-12-29.519265,"86.84,76.31"
2024-05-28_13-12-29.548144,"98.19,82.10"
2024-05-28_13-12-29.580890,"88.03,59.07"
2024-05-28_13-12-29.613635,"82.15,56.15"
2024-05-28_13-12-29.646396,"89.79,59.45"
2024-05-28_13-12-29.679193,"63.05,57.44"
2024-05-28_13-12-29.711841,"82.55,53.77"
2024-05-28_13-12-29.744647,"75.46,97.15"
2024-05-28_13-12-29.773327,"83.77,84.33"
2024-05-28_13-12-29.806189,"89.10,84.91"
2024-05-28_13-12-29.838885,"87.23,84.04"
2024-05-28_13-12-29.871668,"97.79,83.56"
2024-05-28_13-12-29.904471,"106.30,74.03"
2024-05-28_13-12-29.937185,"89.69,54.90"
2024-05-28_13-12-29.969880,"108.53,54.47"
2024-05-28_13-12-29.998622,"75.91,59.67"
2024-05-28_13-12-30.031445,"79.19,52.49"
2024-05-28_13-12-30.064258,"66.47,92.96"
2024-05-28_13-12-30.096956,"75.99,85.36"
2024-05-28_13-12-30.129722,"81.77,90.09"
2024-05-28_13-12-30.162461,"91.76,90.20"
2024-05-28_13-12-30.195154,"89.40,87.68"
2024-05-28_13-12-30.223937,"105.69,82.28"
2024-05-28_13-12-30.256715,"99.42,52.23"
2024-05-28_13-12-30.289470,"97.63,54.42"
2024-05-28_13-12-30.322234,"92.47,59.57"
2024-05-28_13-12-30.355015,"62.50,61.04"
2024-05-28_13-12-30.387759,"78.15,74.36"
2024-05-28_13-12-30.420473,"70.47,84.05"
2024-05-28_13-12-30.449203,"82.54,90.46"
2024-05-28_13-12-30.481995,"82.68,93.17"
2024-05-28_13-12-30.514734,"85.76,80.14"
2024-05-28_13-12-30.547572,"95.88,90.28"
2024-05-28_13-12-30.580311,"103.19,59.38"
2024-05-28_13-12-30.613096,"99.10,47.43"
2024-05-28_13-12-30.645756,"103.11,59.95"
2024-05-28_13-12-30.674522,"61.13,59.31"
2024-05-28_13-12-30.707279,"69.50,56.98"
2024-05-28_13-12-30.740065,"79.37,92.96"
2024-05-28_13-12-30.772832,"80.19,83.36"
2024-05-28_13-12-30.805560,"68.47,96.47"
2024-05-28_13-12-30.838363,"85.20,79.18"
2024-05-28_13-12-30.871049,"98.07,81.59"
2024-05-28_13-12-30.903775,"100.76,70.46"
2024-05-28_13-12-30.932585,"95.65,53.92"
2024-05-28_13-12-30.965341,"103.00,54.19"
2024-05-28_13-12-30.998104,"86.25,55.35"
2024-05-28_13-12-31.030862,"68.18,56.18"
2024-05-28_13-12-31.063680,"70.87,58.25"
2024-05-28_13-12-31.096390,"77.50,87.88"
2024-05-28_13-12-31.129067,"83.32,87.74"
2024-05-28_13-12-31.157982,"84.60,87.62"
2024-05-28_13-12-31.190669,"95.84,88.62"
2024-05-28_13-12-31.223483,"98.45,70.31"
2024-05-28_13-12-31.256247,"76.62,56.27"
2024-05-28_13-12-31.288986,"82.28,56.09"
2024-05-28_13-12-31.321654,"89.82,58.05"
2024-05-28_13-12-31.354339,"67.12,51.78"
2024-05-28_13-12-31.383210,"78.46,84.98"
2024-05-28_13-12-31.415940,"68.52,85.16"
2024-05-28_13-12-31.448742,"81.11,90.29"
2024-05-28_13-12-31.481490,"88.53,86.79"
2024-05-28_13-12-31.514271,"86.09,85.23"
2024-05-28_13-12-31.546937,"95.55,89.25"
2024-05-28_13-12-31.579671,"101.43,71.36"
2024-05-28_13-12-31.608470,"100.57,52.75"
2024-05-28_13-12-31.641223,"100.75,57.82"
2024-05-28_13-12-31.673983,"69.90,58.06"
2024-05-28_13-12-31.706728,"70.43,58.40"
2024-05-28_13-12-31.739520,"79.56,83.52"
2024-05-28_13-12-31.772231,"81.74,92.73"
2024-05-28_13-12-31.804951,"71.40,94.68"
2024-05-28_13-12-31.833737,"85.80,81.01"
2024-05-28_13-12-31.866495,"101.43,80.32"
2024-05-28_13-12-31.899326,"102.11,72.50"
2024-05-28_13-12-31.932035,"96.29,49.30"
2024-05-28_13-12-31.965045,"114.12,57.55"
2024-05-28_13-12-31.997548,"73.68,57.31"
2024-05-28_13-12-32.030251,"79.46,56.78"
2024-05-28_13-12-32.059048,"71.79,59.34"
2024-05-28_13-12-32.092662,"82.68,73.96"
2024-05-28_13-12-32.124715,"69.75,104.57"
2024-05-28_13-12-32.157378,"75.18,86.50"
2024-05-28_13-12-32.190119,"88.78,84.57"
2024-05-28_13-12-32.222840,"93.08,81.96"
2024-05-28_13-12-32.255521,"96.11,70.75"
2024-05-28_13-12-32.284332,"103.84,53.67"
2024-05-28_13-12-32.317068,"93.58,55.45"
2024-05-28_13-12-32.349841,"67.65,57.13"
2024-05-28_13-12-32.382632,"72.94,75.07"
2024-05-28_13-12-32.415367,"71.78,81.98"
2024-05-28_13-12-32.448214,"83.05,88.58"
2024-05-28_13-12-32.480840,"71.06,81.09"
2024-05-28_13-12-32.509636,"89.81,91.10"
2024-05-28_13-12-32.542414,"107.17,90.09"
2024-05-28_13-12-32.575116,"94.67,56.82"
2024-05-28_13-12-32.607928,"108.81,53.59"
2024-05-28_13-12-32.640701,"93.29,58.26"
2024-05-28_13-12-32.673436,"71.39,50.34"
2024-05-28_13-12-32.706126,"69.81,63.36"
2024-05-28_13-12-32.734873,"74.27,81.93"
2024-05-28_13-12-32.767628,"77.77,90.36"
2024-05-28_13-12-32.800436,"78.65,88.94"
2024-05-28_13-12-32.833218,"86.03,88.18"
2024-05-28_13-12-32.865988,"95.05,86.59"
2024-05-28_13-12-32.898785,"94.83,70.10"
2024-05-28_13-12-32.931427,"101.26,53.80"
2024-05-28_13-12-32.964154,"109.37,57.78"
2024-05-28_13-12-32.992987,"78.39,56.60"
2024-05-28_13-12-33.025845,"73.67,57.56"
2024-05-28_13-12-33.058544,"86.75,83.53"
2024-05-28_13-12-33.091307,"77.20,96.35"
2024-05-28_13-12-33.124079,"75.89,98.30"
2024-05-28_13-12-33.156765,"80.41,90.19"
2024-05-28_13-12-33.189433,"82.91,79.98"
2024-05-28_13-12-33.218244,"92.23,79.29"
2024-05-28_13-12-33.251015,"98.37,65.36"
2024-05-28_13-12-33.283798,"112.87,57.35"
2024-05-28_13-12-33.316559,"87.86,57.05"
2024-05-28_13-12-33.349313,"75.44,57.38"
2024-05-28_13-12-33.382055,"77.85,57.46"
2024-05-28_13-12-33.414740,"74.81,75.45"
2024-05-28_13-12-33.443543,"77.13,98.37"
2024-05-28_13-12-33.476293,"89.06,80.85"
2024-05-28_13-12-33.509060,"89.94,88.48"
2024-05-28_13-12-33.541835,"98.67,83.23"
2024-05-28_13-12-33.574617,"96.76,83.47"
2024-05-28_13-12-33.607300,"109.61,53.51"
2024-05-28_13-12-33.640030,"101.46,53.32"
2024-05-28_13-12-33.668874,"74.64,55.50"
2024-05-28_13-12-33.701590,"65.11,60.52"
2024-05-28_13-12-33.734377,"81.41,85.14"
2024-05-28_13-12-33.767136,"72.66,92.02"
2024-05-28_13-12-33.799885,"68.40,83.05"
2024-05-28_13-12-33.832642,"85.38,95.44"
2024-05-28_13-12-33.865376,"108.08,86.20"
2024-05-28_13-12-33.894103,"86.29,69.76"
2024-05-28_13-12-33.926904,"107.58,53.90"
2024-05-28_13-12-33.959666,"105.70,58.56"
2024-05-28_13-12-33.992504,"83.78,49.75"
2024-05-28_13-12-34.025213,"72.02,60.66"
2024-05-28_13-12-34.057899,"81.79,60.37"
2024-05-28_13-12-34.090604,"76.63,74.69"
2024-05-28_13-12-34.119446,"78.85,85.87"
2024-05-28_13-12-34.152180,"81.54,85.08"
2024-05-28_13-12-34.184973,"97.63,87.17"
2024-05-28_13-12-34.217760,"95.09,79.14"
2024-05-28_13-12-34.250481,"98.30,54.02"
2024-05-28_13-12-34.283193,"106.53,56.98"
2024-05-28_13-12-34.315922,"86.89,56.14"
2024-05-28_13-12-34.344699,"77.43,56.23"
2024-05-28_13-12-34.377462,"73.90,59.90"
2024-05-28_13-12-34.410535,"74.72,93.38"
2024-05-28_13-12-34.443354,"71.10,101.48"
2024-05-28_13-12-34.475844,"60.58,85.75"
2024-05-28_13-12-34.508490,"82.12,87.88"
2024-05-28_13-12-34.541190,"94.63,82.05"
2024-05-28_13-12-34.569978,"98.88,64.99"
2024-05-28_13-12-34.602738,"112.39,57.42"
2024-05-28_13-12-34.635525,"95.18,55.67"
2024-05-28_13-12-34.668276,"77.34,59.40"
2024-05-28_13-12-34.701069,"60.25,60.72"
2024-05-28_13-12-34.733793,"79.72,53.65"
2024-05-28_13-12-34.766494,"79.68,96.20"
2024-05-28_13-12-34.795236,"89.12,81.65"
2024-05-28_13-12-34.828060,"91.12,85.71"
2024-05-28_13-12-34.860839,"100.30,84.90"
2024-05-28_13-12-34.893584,"102.25,70.78"
2024-05-28_13-12-34.926349,"109.31,54.34"
2024-05-28_13-12-34.959092,"97.17,52.24"
2024-05-28_13-12-34.991806,"71.43,58.99"
2024-05-28_13-12-35.020620,"63.67,61.75"
2024-05-28_13-12-35.053372,"78.46,73.24"
2024-05-28_13-12-35.086130,"74.62,83.95"
2024-05-28_13-12-35.119171,"66.11,85.68"
2024-05-28_13-12-35.151797,"77.40,96.76"
2024-05-28_13-12-35.184624,"87.26,94.27"
2024-05-28_13-12-35.217086,"80.72,61.80"
2024-05-28_13-12-35.245865,"106.43,55.22"
2024-05-28_13-12-35.278605,"102.79,57.69"
2024-05-28_13-12-35.311376,"87.03,49.24"
2024-05-28_13-12-35.344150,"73.28,60.89"
2024-05-28_13-12-35.376997,"82.78,61.12"
2024-05-28_13-12-35.409657,"70.66,77.65"
2024-05-28_13-12-35.442368,"85.70,88.41"
2024-05-28_13-12-35.471161,"81.93,90.86"
2024-05-28_13-12-35.503886,"96.23,89.81"
2024-05-28_13-12-35.536666,"92.10,76.47"
2024-05-28_13-12-35.569445,"100.06,68.88"
2024-05-28_13-12-35.602201,"106.76,58.36"
