timestamp,EMG
2024-05-28_13-06-45.847720,"89.10,70.87"
2024-05-28_13-06-45.879839,"94.78,88.64"
2024-05-28_13-06-45.912654,"91.15,78.47"
2024-05-28_13-06-45.945401,"92.35,81.12"
2024-05-28_13-06-45.978285,"107.60,82.71"
2024-05-28_13-06-46.007288,"93.17,54.80"
2024-05-28_13-06-46.039978,"84.73,55.16"
2024-05-28_13-06-46.072666,"67.52,54.92"
2024-05-28_13-06-46.105343,"82.92,52.76"
2024-05-28_13-06-46.138142,"75.53,87.77"
2024-05-28_13-06-46.170947,"72.57,84.14"
2024-05-28_13-06-46.203599,"82.17,85.20"
2024-05-28_13-06-46.232494,"86.70,81.72"
2024-05-28_13-06-46.265284,"86.71,91.17"
2024-05-28_13-06-46.298289,"103.43,90.49"
2024-05-28_13-06-46.330890,"88.45,78.29"
2024-05-28_13-06-46.363658,"107.04,68.01"
2024-05-28_13-06-46.397084,"113.14,57.80"
2024-05-28_13-06-46.429412,"90.74,47.51"
2024-05-28_13-06-46.458899,"79.97,59.13"
2024-05-28_13-06-46.490946,"75.83,57.54"
2024-05-28_13-06-46.523741,"76.57,59.27"
2024-05-28_13-06-46.556629,"72.89,90.93"
2024-05-28_13-06-46.600118,"83.99,79.65"
2024-05-28_13-06-46.622039,"72.28,98.22"
2024-05-28_13-06-46.654632,"75.67,90.66"
2024-05-28_13-06-46.683474,"92.62,83.55"
2024-05-28_13-06-46.716504,"98.65,76.80"
2024-05-28_13-06-46.750744,"89.51,78.89"
2024-05-28_13-06-46.781953,"87.51,54.72"
2024-05-28_13-06-46.814706,"89.41,52.75"
2024-05-28_13-06-46.847619,"72.62,54.30"
2024-05-28_13-06-46.880224,"67.33,58.98"
2024-05-28_13-06-46.909302,"83.76,57.73"
2024-05-28_13-06-46.941849,"66.23,79.52"
2024-05-28_13-06-46.978071,"72.65,83.78"
2024-05-28_13-06-47.007436,"81.14,92.83"
2024-05-28_13-06-47.040951,"87.74,102.72"
2024-05-28_13-06-47.072946,"81.85,86.24"
2024-05-28_13-06-47.105638,"91.64,82.80"
2024-05-28_13-06-47.134512,"96.51,77.74"
2024-05-28_13-06-47.167419,"111.18,47.48"
2024-05-28_13-06-47.200082,"99.47,57.44"
2024-05-28_13-06-47.232948,"59.11,57.31"
2024-05-28_13-06-47.265814,"71.20,53.99"
2024-05-28_13-06-47.298431,"83.01,70.60"
2024-05-28_13-06-47.331191,"71.96,78.55"
2024-05-28_13-06-47.359989,"81.51,91.60"
2024-05-28_13-06-47.392867,"85.55,82.53"
2024-05-28_13-06-47.425686,"86.56,81.31"
2024-05-28_13-06-47.458428,"96.17,88.15"
2024-05-28_13-06-47.491232,"86.61,82.92"
2024-05-28_13-06-47.523948,"103.33,80.73"
2024-05-28_13-06-47.556670,"99.34,53.22"
2024-05-28_13-06-47.585538,"98.52,52.58"
2024-05-28_13-06-47.618506,"76.53,59.13"
2024-05-28_13-06-47.651151,"62.30,57.49"
2024-05-28_13-06-47.683924,"75.72,72.31"
2024-05-28_13-06-47.717054,"70.44,61.31"
2024-05-28_13-06-47.749579,"84.51,87.61"
2024-05-28_13-06-47.782255,"81.11,92.39"
2024-05-28_13-06-47.811005,"85.40,80.68"
2024-05-28_13-06-47.843825,"92.48,84.87"
2024-05-28_13-06-47.876611,"98.09,77.28"
2024-05-28_13-06-47.909400,"98.93,83.77"
2024-05-28_13-06-47.942228,"110.60,57.06"
2024-05-28_13-06-47.975044,"96.23,54.94"
2024-05-28_13-06-48.007667,"81.81,53.76"
2024-05-28_13-06-48.036523,"60.85,58.76"
2024-05-28_13-06-48.069308,"88.32,48.97"
2024-05-28_13-06-48.102113,"59.32,97.23"
2024-05-28_13-06-48.134956,"80.85,79.62"
2024-05-28_13-06-48.167729,"83.70,85.75"
2024-05-28_13-06-48.200871,"93.54,82.72"
2024-05-28_13-06-48.233238,"87.42,88.43"
2024-05-28_13-06-48.266000,"100.93,84.24"
2024-05-28_13-06-48.294843,"89.88,79.32"
2024-05-28_13-06-48.327667,"102.79,68.22"
2024-05-28_13-06-48.360422,"110.53,57.35"
2024-05-28_13-06-48.393221,"73.09,55.91"
2024-05-28_13-06-48.426076,"70.66,54.80"
2024-05-28_13-06-48.458721,"74.24,56.02"
2024-05-28_13-06-48.487517,"72.99,73.01"
2024-05-28_13-06-48.520329,"78.05,90.97"
2024-05-28_13-06-48.553249,"71.43,82.66"
2024-05-28_13-06-48.585927,"84.83,84.64"
2024-05-28_13-06-48.619790,"85.92,90.93"
2024-05-28_13-06-48.651511,"92.69,86.97"
2024-05-28_13-06-48.684236,"92.20,73.35"
2024-05-28_13-06-48.716981,"93.23,55.37"
2024-05-28_13-06-48.745790,"109.32,52.93"
2024-05-28_13-06-48.778613,"79.18,57.24"
2024-05-28_13-06-48.811429,"65.27,49.12"
2024-05-28_13-06-48.844217,"79.85,59.43"
2024-05-28_13-06-48.877203,"72.03,79.96"
2024-05-28_13-06-48.909707,"71.77,89.78"
2024-05-28_13-06-48.942483,"88.24,85.68"
2024-05-28_13-06-48.971327,"83.03,77.01"
2024-05-28_13-06-49.004091,"98.92,93.44"
2024-05-28_13-06-49.036956,"97.21,75.87"
2024-05-28_13-06-49.069732,"95.47,84.99"
2024-05-28_13-06-49.102568,"114.12,56.89"
2024-05-28_13-06-49.135232,"98.13,54.40"
2024-05-28_13-06-49.167955,"80.58,54.66"
2024-05-28_13-06-49.196827,"61.00,55.85"
2024-05-28_13-06-49.229603,"81.36,52.67"
2024-05-28_13-06-49.262423,"71.62,98.77"
2024-05-28_13-06-49.295232,"78.58,81.14"
2024-05-28_13-06-49.328098,"84.41,84.00"
2024-05-28_13-06-49.360707,"74.06,80.52"
2024-05-28_13-06-49.393437,"92.21,89.65"
2024-05-28_13-06-49.422317,"105.25,89.77"
2024-05-28_13-06-49.455074,"92.74,80.66"
2024-05-28_13-06-49.487898,"109.23,68.62"
2024-05-28_13-06-49.520718,"98.83,57.44"
2024-05-28_13-06-49.553472,"79.84,47.73"
2024-05-28_13-06-49.586294,"70.51,59.93"
2024-05-28_13-06-49.619083,"69.67,58.53"
2024-05-28_13-06-49.647782,"68.81,55.24"
2024-05-28_13-06-49.680571,"79.87,86.46"
2024-05-28_13-06-49.713431,"86.38,80.11"
2024-05-28_13-06-49.746308,"82.87,92.26"
2024-05-28_13-06-49.779046,"87.61,90.49"
2024-05-28_13-06-49.811677,"96.85,79.26"
2024-05-28_13-06-49.844465,"98.98,81.30"
2024-05-28_13-06-49.873380,"95.31,82.93"
2024-05-28_13-06-49.908811,"102.71,53.70"
2024-05-28_13-06-49.938965,"82.36,53.01"
2024-05-28_13-06-49.971682,"70.03,53.55"
2024-05-28_13-06-50.004500,"73.44,59.72"
2024-05-28_13-06-50.037347,"76.27,61.83"
2024-05-28_13-06-50.070043,"74.61,87.86"
2024-05-28_13-06-50.098739,"82.18,80.85"
2024-05-28_13-06-50.131631,"88.56,83.08"
2024-05-28_13-06-50.164574,"99.39,90.06"
2024-05-28_13-06-50.197229,"80.43,78.39"
2024-05-28_13-06-50.230033,"100.38,86.01"
2024-05-28_13-06-50.262723,"106.75,58.33"
2024-05-28_13-06-50.295462,"104.64,46.69"
2024-05-28_13-06-50.324283,"81.12,58.31"
2024-05-28_13-06-50.364265,"56.62,57.32"
2024-05-28_13-06-50.389900,"79.27,53.16"
2024-05-28_13-06-50.422698,"74.06,74.62"
2024-05-28_13-06-50.455449,"80.57,79.92"
2024-05-28_13-06-50.488201,"81.46,93.51"
2024-05-28_13-06-50.520970,"86.55,79.22"
2024-05-28_13-06-50.549863,"93.65,86.10"
2024-05-28_13-06-50.582556,"104.72,78.07"
2024-05-28_13-06-50.615351,"89.24,85.62"
2024-05-28_13-06-50.648333,"111.41,70.29"
2024-05-28_13-06-50.680967,"96.27,52.23"
2024-05-28_13-06-50.713791,"78.43,53.40"
2024-05-28_13-06-50.746443,"74.91,58.52"
2024-05-28_13-06-50.775310,"88.87,57.28"
2024-05-28_13-06-50.808057,"64.84,66.71"
2024-05-28_13-06-50.840864,"73.82,80.16"
2024-05-28_13-06-50.873668,"86.39,83.76"
2024-05-28_13-06-50.906401,"86.30,89.82"
2024-05-28_13-06-50.939269,"84.56,93.52"
2024-05-28_13-06-50.972132,"98.14,79.53"
2024-05-28_13-06-51.000865,"97.90,80.59"
2024-05-28_13-06-51.033560,"109.72,77.30"
2024-05-28_13-06-51.066404,"96.85,58.16"
2024-05-28_13-06-51.099194,"70.36,56.17"
2024-05-28_13-06-51.132017,"76.27,53.87"
2024-05-28_13-06-51.164870,"78.53,65.65"
2024-05-28_13-06-51.197583,"77.89,83.78"
2024-05-28_13-06-51.226270,"64.01,91.09"
2024-05-28_13-06-51.258999,"78.54,83.69"
2024-05-28_13-06-51.293469,"80.35,88.49"
2024-05-28_13-06-51.333418,"79.11,86.31"
2024-05-28_13-06-51.357802,"79.36,90.56"
2024-05-28_13-06-51.391005,"87.45,57.71"
2024-05-28_13-06-51.423118,"97.48,53.37"
2024-05-28_13-06-51.452259,"80.40,56.26"
2024-05-28_13-06-51.484682,"90.85,58.84"
2024-05-28_13-06-51.517798,"69.95,56.90"
2024-05-28_13-06-51.550122,"86.03,55.48"
2024-05-28_13-06-51.584307,"75.58,62.53"
2024-05-28_13-06-51.615767,"73.54,95.26"
2024-05-28_13-06-51.648540,"72.60,95.62"
2024-05-28_13-06-51.681715,"82.19,82.91"
2024-05-28_13-06-51.710030,"75.41,92.83"
2024-05-28_13-06-51.742872,"95.13,76.38"
2024-05-28_13-06-51.775584,"97.81,92.15"
2024-05-28_13-06-51.808347,"106.74,69.33"
2024-05-28_13-06-51.841172,"87.34,54.88"
2024-05-28_13-06-51.873968,"84.07,54.14"
2024-05-28_13-06-51.906665,"61.89,58.97"
2024-05-28_13-06-51.935434,"89.76,47.85"
2024-05-28_13-06-51.968225,"59.77,86.08"
2024-05-28_13-06-52.001842,"78.33,80.77"
2024-05-28_13-06-52.033890,"84.50,85.79"
2024-05-28_13-06-52.066634,"91.92,83.02"
2024-05-28_13-06-52.099449,"85.24,88.72"
2024-05-28_13-06-52.132323,"101.98,84.92"
2024-05-28_13-06-52.160900,"94.72,62.84"
2024-05-28_13-06-52.193787,"103.93,54.31"
2024-05-28_13-06-52.226555,"110.25,56.93"
2024-05-28_13-06-52.259321,"70.27,55.65"
2024-05-28_13-06-52.292127,"68.73,55.94"
2024-05-28_13-06-52.325092,"73.92,56.01"
2024-05-28_13-06-52.357599,"72.25,85.91"
2024-05-28_13-06-52.386704,"76.55,92.02"
2024-05-28_13-06-52.419221,"82.36,83.89"
2024-05-28_13-06-52.452028,"79.04,84.80"
2024-05-28_13-06-52.484886,"85.63,94.92"
2024-05-28_13-06-52.517657,"95.53,84.62"
2024-05-28_13-06-52.550329,"109.37,86.64"
2024-05-28_13-06-52.583044,"96.84,55.34"
2024-05-28_13-06-52.611837,"110.31,53.18"
2024-05-28_13-06-52.644736,"81.54,56.73"
2024-05-28_13-06-52.677475,"67.98,49.93"
2024-05-28_13-06-52.710256,"79.90,59.53"
2024-05-28_13-06-52.743093,"72.61,65.12"
2024-05-28_13-06-52.775834,"72.65,89.62"
2024-05-28_13-06-52.808568,"89.07,85.36"
2024-05-28_13-06-52.837392,"80.90,77.84"
2024-05-28_13-06-52.870210,"97.87,95.45"
2024-05-28_13-06-52.902906,"94.61,75.94"
2024-05-28_13-06-52.935760,"94.34,82.24"
2024-05-28_13-06-52.968563,"104.65,71.67"
2024-05-28_13-06-53.001327,"102.16,54.36"
2024-05-28_13-06-53.034004,"83.15,53.92"
2024-05-28_13-06-53.064402,"62.01,55.68"
2024-05-28_13-06-53.095627,"67.26,53.32"
2024-05-28_13-06-53.128496,"72.02,98.94"
2024-05-28_13-06-53.161208,"77.36,81.45"
2024-05-28_13-06-53.194030,"80.09,86.55"
2024-05-28_13-06-53.226744,"87.95,81.31"
2024-05-28_13-06-53.259483,"88.39,89.83"
2024-05-28_13-06-53.288312,"106.33,87.53"
2024-05-28_13-06-53.321437,"82.56,83.46"
2024-05-28_13-06-53.353931,"109.19,68.92"
2024-05-28_13-06-53.386695,"97.01,57.47"
2024-05-28_13-06-53.419480,"78.05,48.13"
2024-05-28_13-06-53.452309,"70.35,59.48"
2024-05-28_13-06-53.484982,"69.57,58.26"
2024-05-28_13-06-53.513768,"68.54,79.31"
2024-05-28_13-06-53.546636,"78.65,86.07"
2024-05-28_13-06-53.579360,"77.61,78.19"
2024-05-28_13-06-53.612118,"84.54,91.92"
2024-05-28_13-06-53.644965,"85.07,92.27"
2024-05-28_13-06-53.677702,"90.89,81.95"
2024-05-28_13-06-53.725233,"96.98,79.93"
2024-05-28_13-06-53.740820,"75.87,71.40"
2024-05-28_13-06-53.772286,"89.46,55.73"
2024-05-28_13-06-53.804977,"81.38,53.47"
2024-05-28_13-06-53.838003,"72.91,54.12"
2024-05-28_13-06-53.870590,"78.96,75.97"
2024-05-28_13-06-53.903803,"73.47,87.91"
2024-05-28_13-06-53.936053,"69.88,91.73"
2024-05-28_13-06-53.964844,"78.26,83.10"
2024-05-28_13-06-53.997553,"75.15,89.25"
2024-05-28_13-06-54.030340,"96.39,93.75"
2024-05-28_13-06-54.063082,"91.55,77.20"
2024-05-28_13-06-54.095969,"101.03,84.00"
2024-05-28_13-06-54.128709,"98.42,72.71"
2024-05-28_13-06-54.161369,"101.85,46.90"
2024-05-28_13-06-54.190188,"82.17,58.74"
2024-05-28_13-06-54.223065,"55.52,58.56"
2024-05-28_13-06-54.255990,"68.39,52.89"
2024-05-28_13-06-54.288792,"77.52,89.44"
2024-05-28_13-06-54.321931,"72.24,85.05"
2024-05-28_13-06-54.356801,"63.78,101.30"
2024-05-28_13-06-54.386897,"88.37,90.60"
2024-05-28_13-06-54.415687,"77.72,88.34"
2024-05-28_13-06-54.448474,"103.32,79.68"
2024-05-28_13-06-54.481264,"87.46,81.64"
2024-05-28_13-06-54.514012,"109.79,70.61"
2024-05-28_13-06-54.546853,"103.88,52.24"
2024-05-28_13-06-54.579624,"74.76,53.90"
2024-05-28_13-06-54.612261,"62.91,59.82"
2024-05-28_13-06-54.645054,"86.01,57.72"
2024-05-28_13-06-54.674061,"62.76,93.40"
2024-05-28_13-06-54.706929,"78.14,79.63"
2024-05-28_13-06-54.739666,"71.80,91.43"
2024-05-28_13-06-54.773260,"78.32,101.95"
2024-05-28_13-06-54.805963,"80.60,82.78"
2024-05-28_13-06-54.837802,"96.36,81.86"
2024-05-28_13-06-54.870586,"89.50,82.54"
2024-05-28_13-06-54.899397,"99.96,65.17"
2024-05-28_13-06-54.932275,"98.29,57.60"
2024-05-28_13-06-54.964975,"66.84,56.71"
2024-05-28_13-06-54.997827,"72.01,55.25"
2024-05-28_13-06-55.030533,"72.40,67.34"
2024-05-28_13-06-55.063254,"75.21,83.08"
2024-05-28_13-06-55.095966,"73.93,95.01"
2024-05-28_13-06-55.125075,"72.52,81.60"
2024-05-28_13-06-55.158073,"88.89,82.12"
2024-05-28_13-06-55.190486,"94.80,93.47"
2024-05-28_13-06-55.223594,"99.75,82.27"
2024-05-28_13-06-55.256362,"102.57,81.02"
2024-05-28_13-06-55.288974,"91.48,53.09"
2024-05-28_13-06-55.321450,"94.17,53.34"
2024-05-28_13-06-55.350305,"75.64,58.85"
2024-05-28_13-06-55.383121,"62.40,57.36"
2024-05-28_13-06-55.415885,"76.44,82.71"
2024-05-28_13-06-55.448692,"68.78,76.37"
2024-05-28_13-06-55.481506,"87.31,87.55"
2024-05-28_13-06-55.514167,"67.54,92.34"
2024-05-28_13-06-55.546886,"83.92,89.32"
2024-05-28_13-06-55.575970,"92.91,82.70"
2024-05-28_13-06-55.608918,"91.31,79.39"
2024-05-28_13-06-55.641409,"105.33,76.53"
2024-05-28_13-06-55.674356,"114.47,57.87"
2024-05-28_13-06-55.707070,"68.54,55.72"
2024-05-28_13-06-55.739732,"79.58,54.34"
2024-05-28_13-06-55.772377,"63.10,58.16"
2024-05-28_13-06-55.801270,"84.00,81.13"
2024-05-28_13-06-55.834043,"64.03,81.45"
2024-05-28_13-06-55.866802,"78.39,81.15"
2024-05-28_13-06-55.899597,"71.40,86.29"
2024-05-28_13-06-55.932392,"92.67,81.78"
2024-05-28_13-06-55.965080,"88.81,86.39"
2024-05-28_13-06-55.997831,"96.27,83.73"
2024-05-28_13-06-56.026869,"95.29,73.45"
2024-05-28_13-06-56.059581,"98.33,69.44"
2024-05-28_13-06-56.092285,"101.42,57.56"
2024-05-28_13-06-56.125476,"64.99,56.92"
2024-05-28_13-06-56.157905,"67.52,54.99"
2024-05-28_13-06-56.190580,"83.24,56.95"
2024-05-28_13-06-56.223481,"73.31,74.36"
2024-05-28_13-06-56.252137,"84.83,90.14"
2024-05-28_13-06-56.284944,"71.42,81.79"
2024-05-28_13-06-56.317710,"85.29,92.15"
2024-05-28_13-06-56.350522,"91.51,79.48"
2024-05-28_13-06-56.383326,"94.89,90.41"
2024-05-28_13-06-56.416052,"110.35,70.53"
2024-05-28_13-06-56.448753,"90.34,54.85"
2024-05-28_13-06-56.477751,"87.97,54.41"
2024-05-28_13-06-56.510499,"68.01,58.42"
2024-05-28_13-06-56.545608,"77.66,53.34"
2024-05-28_13-06-56.595945,"64.75,79.83"
2024-05-28_13-06-56.609801,"71.36,86.04"
2024-05-28_13-06-56.642395,"70.32,93.65"
2024-05-28_13-06-56.674822,"88.08,88.57"
2024-05-28_13-06-56.703096,"75.82,88.40"
2024-05-28_13-06-56.736004,"81.14,89.53"
2024-05-28_13-06-56.768811,"97.46,78.86"
2024-05-28_13-06-56.801462,"81.10,70.17"
2024-05-28_13-06-56.834255,"103.49,58.18"
2024-05-28_13-06-56.867081,"69.51,56.43"
2024-05-28_13-06-56.899684,"71.15,54.76"
2024-05-28_13-06-56.928516,"73.77,55.92"
2024-05-28_13-06-56.961427,"74.97,53.50"
2024-05-28_13-06-56.994120,"71.24,94.54"
2024-05-28_13-06-57.027059,"83.79,83.09"
2024-05-28_13-06-57.059872,"84.27,84.75"
2024-05-28_13-06-57.092487,"84.70,80.62"
2024-05-28_13-06-57.125870,"93.23,85.87"
2024-05-28_13-06-57.153989,"109.97,86.01"
2024-05-28_13-06-57.186982,"98.83,55.04"
2024-05-28_13-06-57.219522,"95.30,54.18"
2024-05-28_13-06-57.252360,"75.92,57.77"
2024-05-28_13-06-57.285167,"66.29,50.23"
2024-05-28_13-06-57.317901,"81.20,59.26"
2024-05-28_13-06-57.350568,"72.30,63.27"
2024-05-28_13-06-57.379384,"73.11,90.13"
2024-05-28_13-06-57.412202,"86.53,86.26"
2024-05-28_13-06-57.445001,"79.24,78.86"
2024-05-28_13-06-57.477905,"94.25,94.03"
2024-05-28_13-06-57.511176,"96.85,76.04"
2024-05-28_13-06-57.543409,"93.56,84.68"
2024-05-28_13-06-57.576287,"112.24,57.35"
2024-05-28_13-06-57.605045,"98.82,55.00"
2024-05-28_13-06-57.637653,"80.03,54.65"
2024-05-28_13-06-57.670472,"64.12,54.78"
2024-05-28_13-06-57.704327,"80.73,52.63"
2024-05-28_13-06-57.736025,"70.18,83.31"
2024-05-28_13-06-57.768828,"73.53,84.29"
2024-05-28_13-06-57.801522,"77.93,88.79"
2024-05-28_13-06-57.834232,"86.54,77.98"
2024-05-28_13-06-57.863106,"93.43,84.77"
2024-05-28_13-06-57.895962,"109.86,85.94"
2024-05-28_13-06-57.928719,"86.25,78.16"
2024-05-28_13-06-57.961725,"114.04,53.67"
2024-05-28_13-06-57.994314,"99.18,57.09"
2024-05-28_13-06-58.027135,"72.00,48.45"
2024-05-28_13-06-58.055809,"69.10,59.58"
2024-05-28_13-06-58.088597,"81.42,58.13"
2024-05-28_13-06-58.121354,"63.85,79.41"
2024-05-28_13-06-58.154113,"82.16,86.96"
2024-05-28_13-06-58.186921,"80.23,77.60"
2024-05-28_13-06-58.219798,"98.58,89.37"
2024-05-28_13-06-58.252443,"90.84,82.74"
2024-05-28_13-06-58.285138,"100.65,79.10"
2024-05-28_13-06-58.314002,"106.69,80.66"
2024-05-28_13-06-58.346871,"97.03,54.45"
2024-05-28_13-06-58.379757,"90.21,54.56"
2024-05-28_13-06-58.412981,"64.30,54.57"
2024-05-28_13-06-58.445186,"67.33,53.37"
2024-05-28_13-06-58.478017,"79.20,57.74"
2024-05-28_13-06-58.510561,"71.80,84.63"
2024-05-28_13-06-58.539469,"80.58,86.35"
2024-05-28_13-06-58.572199,"83.56,82.64"
2024-05-28_13-06-58.605067,"88.29,80.28"
2024-05-28_13-06-58.637844,"102.58,92.91"
2024-05-28_13-06-58.670591,"91.29,79.13"
2024-05-28_13-06-58.703294,"108.85,69.10"
2024-05-28_13-06-58.736286,"100.01,57.46"
2024-05-28_13-06-58.765003,"81.69,48.15"
2024-05-28_13-06-58.797707,"76.81,59.22"
2024-05-28_13-06-58.830491,"70.88,57.44"
2024-05-28_13-06-58.863312,"69.71,83.07"
2024-05-28_13-06-58.896066,"76.84,87.01"
2024-05-28_13-06-58.928867,"88.20,78.91"
2024-05-28_13-06-58.961575,"82.25,92.56"
2024-05-28_13-06-58.990327,"87.33,83.45"
2024-05-28_13-06-59.023102,"94.29,79.70"
2024-05-28_13-06-59.055937,"107.54,84.49"
2024-05-28_13-06-59.088682,"98.11,70.63"
2024-05-28_13-06-59.121577,"101.60,54.00"
2024-05-28_13-06-59.154195,"72.71,53.86"
2024-05-28_13-06-59.186914,"67.56,53.20"
2024-05-28_13-06-59.215708,"71.68,59.77"
2024-05-28_13-06-59.254593,"73.52,83.90"
2024-05-28_13-06-59.281441,"72.10,91.13"
2024-05-28_13-06-59.314127,"86.90,84.43"
2024-05-28_13-06-59.346914,"86.67,82.14"
2024-05-28_13-06-59.379871,"100.95,100.86"
2024-05-28_13-06-59.412468,"81.71,78.14"
2024-05-28_13-06-59.441234,"102.64,88.17"
2024-05-28_13-06-59.473982,"100.04,58.23"
2024-05-28_13-06-59.506801,"95.38,46.78"
2024-05-28_13-06-59.539588,"79.33,59.21"
2024-05-28_13-06-59.572497,"57.75,57.51"
2024-05-28_13-06-59.605089,"76.95,80.49"
2024-05-28_13-06-59.637902,"74.59,72.23"
2024-05-28_13-06-59.666641,"83.50,80.35"
2024-05-28_13-06-59.699448,"70.09,93.74"
2024-05-28_13-06-59.732337,"85.86,89.67"
2024-05-28_13-06-59.765007,"87.06,85.63"
2024-05-28_13-06-59.797818,"99.15,78.04"
2024-05-28_13-06-59.830614,"92.26,91.02"
2024-05-28_13-06-59.863627,"104.05,53.99"
2024-05-28_13-06-59.892470,"97.64,52.48"
2024-05-28_13-06-59.925084,"70.50,54.26"
2024-05-28_13-06-59.957805,"63.85,59.25"
2024-05-28_13-06-59.990461,"84.51,58.50"
2024-05-28_13-07-00.023311,"64.80,80.66"
2024-05-28_13-07-00.055993,"75.18,82.18"
2024-05-28_13-07-00.088720,"84.64,86.09"
2024-05-28_13-07-00.117489,"99.85,88.29"
2024-05-28_13-07-00.150592,"86.34,86.58"
2024-05-28_13-07-00.183262,"92.41,81.06"
2024-05-28_13-07-00.215957,"95.76,80.43"
2024-05-28_13-07-00.248755,"111.52,47.81"
2024-05-28_13-07-00.281538,"95.34,58.18"
2024-05-28_13-07-00.314227,"60.19,56.69"
2024-05-28_13-07-00.343056,"69.46,54.94"
2024-05-28_13-07-00.375736,"82.98,56.63"
2024-05-28_13-07-00.409847,"72.26,77.47"
2024-05-28_13-07-00.441311,"74.82,95.89"
2024-05-28_13-07-00.474111,"84.82,83.16"
2024-05-28_13-07-00.506859,"86.07,93.15"
2024-05-28_13-07-00.539559,"99.02,84.87"
2024-05-28_13-07-00.568355,"95.03,86.60"
2024-05-28_13-07-00.601227,"106.19,67.82"
2024-05-28_13-07-00.633975,"102.28,52.37"
2024-05-28_13-07-00.666770,"83.24,54.21"
2024-05-28_13-07-00.699573,"71.47,58.92"
2024-05-28_13-07-00.732351,"75.66,58.21"
2024-05-28_13-07-00.765368,"71.04,54.74"
2024-05-28_13-07-00.794024,"73.46,83.29"
2024-05-28_13-07-00.826995,"81.18,94.18"
2024-05-28_13-07-00.860690,"68.37,96.05"
2024-05-28_13-07-00.892178,"77.79,83.57"
2024-05-28_13-07-00.925024,"90.17,85.78"
2024-05-28_13-07-00.957804,"94.26,80.90"
2024-05-28_13-07-00.990437,"108.53,65.69"
2024-05-28_13-07-01.023177,"108.65,57.65"
2024-05-28_13-07-01.052063,"71.10,56.28"
2024-05-28_13-07-01.084919,"72.42,54.99"
2024-05-28_13-07-01.117607,"75.73,63.36"
2024-05-28_13-07-01.150433,"77.55,88.75"
2024-05-28_13-07-01.183245,"70.94,96.09"
2024-05-28_13-07-01.216018,"69.70,82.79"
2024-05-28_13-07-01.244802,"85.66,85.76"
2024-05-28_13-07-01.277589,"89.42,93.04"
2024-05-28_13-07-01.311104,"86.45,84.87"
2024-05-28_13-07-01.343099,"102.43,89.61"
2024-05-28_13-07-01.375880,"102.43,53.35"
2024-05-28_13-07-01.408774,"91.87,54.71"
2024-05-28_13-07-01.441332,"73.44,59.65"
2024-05-28_13-07-01.474079,"63.23,57.84"
2024-05-28_13-07-01.502949,"74.75,56.91"
2024-05-28_13-07-01.535709,"68.04,82.88"
2024-05-28_13-07-01.568605,"86.30,90.43"
2024-05-28_13-07-01.601309,"81.33,93.52"
2024-05-28_13-07-01.634131,"85.33,87.99"
2024-05-28_13-07-01.666798,"92.25,83.68"
2024-05-28_13-07-01.699486,"91.32,79.37"
2024-05-28_13-07-01.728480,"104.74,62.08"
2024-05-28_13-07-01.762711,"104.41,58.67"
2024-05-28_13-07-01.793986,"83.69,55.61"
2024-05-28_13-07-01.826827,"75.41,55.68"
2024-05-28_13-07-01.860293,"67.99,59.34"
2024-05-28_13-07-01.892541,"81.12,61.58"
2024-05-28_13-07-01.925175,"63.78,80.03"
2024-05-28_13-07-01.955777,"73.64,87.47"
2024-05-28_13-07-01.986627,"68.56,93.23"
2024-05-28_13-07-02.019487,"87.93,92.89"
2024-05-28_13-07-02.052193,"94.15,83.35"
2024-05-28_13-07-02.084977,"96.05,89.78"
2024-05-28_13-07-02.117687,"100.77,53.96"
2024-05-28_13-07-02.150351,"100.06,53.67"
2024-05-28_13-07-02.179342,"83.06,59.45"
2024-05-28_13-07-02.212416,"68.26,56.78"
2024-05-28_13-07-02.245076,"80.14,85.52"
2024-05-28_13-07-02.277640,"75.84,62.19"
2024-05-28_13-07-02.310595,"76.28,97.09"
2024-05-28_13-07-02.343065,"73.83,96.37"
2024-05-28_13-07-02.375793,"84.34,80.63"
2024-05-28_13-07-02.404636,"89.87,87.76"
2024-05-28_13-07-02.437550,"95.15,77.48"
2024-05-28_13-07-02.470175,"94.38,77.19"
2024-05-28_13-07-02.503037,"113.19,58.90"
2024-05-28_13-07-02.535928,"93.52,55.44"
2024-05-28_13-07-02.568498,"81.72,54.76"
2024-05-28_13-07-02.601246,"63.88,59.02"
2024-05-28_13-07-02.630231,"87.67,47.77"
2024-05-28_13-07-02.663264,"61.40,84.20"
2024-05-28_13-07-02.695725,"76.02,83.02"
2024-05-28_13-07-02.728473,"81.44,88.02"
2024-05-28_13-07-02.761678,"90.09,83.30"
2024-05-28_13-07-02.793954,"87.12,86.51"
2024-05-28_13-07-02.826675,"102.62,85.55"
2024-05-28_13-07-02.855561,"96.23,75.50"
2024-05-28_13-07-02.888287,"104.89,53.54"
2024-05-28_13-07-02.921237,"105.69,57.99"
2024-05-28_13-07-02.953874,"66.12,56.62"
2024-05-28_13-07-02.986691,"70.48,54.43"
2024-05-28_13-07-03.019385,"86.24,56.96"
2024-05-28_13-07-03.052084,"72.38,77.31"
2024-05-28_13-07-03.080938,"77.71,93.20"
2024-05-28_13-07-03.113718,"83.96,84.87"
2024-05-28_13-07-03.146628,"78.21,95.60"
2024-05-28_13-07-03.179500,"88.08,81.22"
2024-05-28_13-07-03.212334,"99.30,89.58"
2024-05-28_13-07-03.244991,"105.56,66.64"
2024-05-28_13-07-03.277553,"81.35,55.57"
2024-05-28_13-07-03.306373,"81.80,55.49"
2024-05-28_13-07-03.339149,"63.80,58.88"
2024-05-28_13-07-03.371927,"80.75,49.00"
2024-05-28_13-07-03.404800,"73.55,70.86"
2024-05-28_13-07-03.437557,"68.60,84.26"
2024-05-28_13-07-03.470259,"76.69,90.15"
2024-05-28_13-07-03.502961,"85.25,88.57"
2024-05-28_13-07-03.531804,"80.86,93.32"
2024-05-28_13-07-03.564761,"97.37,87.23"
2024-05-28_13-07-03.597375,"97.57,76.97"
2024-05-28_13-07-03.630256,"99.61,69.28"
2024-05-28_13-07-03.663214,"105.41,58.07"
2024-05-28_13-07-03.695983,"80.38,55.98"
2024-05-28_13-07-03.728633,"75.33,54.14"
2024-05-28_13-07-03.757173,"80.11,55.60"
2024-05-28_13-07-03.790037,"72.15,65.16"
2024-05-28_13-07-03.822721,"72.21,96.35"
2024-05-28_13-07-03.855826,"79.87,85.25"
2024-05-28_13-07-03.888460,"74.62,88.23"
2024-05-28_13-07-03.921104,"81.99,88.27"
2024-05-28_13-07-03.953881,"87.56,89.60"
2024-05-28_13-07-03.982648,"99.90,92.68"
2024-05-28_13-07-04.015377,"90.08,56.40"
2024-05-28_13-07-04.048212,"105.94,54.26"
2024-05-28_13-07-04.081659,"74.29,58.85"
2024-05-28_13-07-04.114675,"72.89,48.25"
2024-05-28_13-07-04.146631,"75.32,86.42"
2024-05-28_13-07-04.179561,"67.33,83.76"
2024-05-28_13-07-04.212665,"82.09,87.05"
2024-05-28_13-07-04.240893,"87.96,87.18"
2024-05-28_13-07-04.273646,"76.81,88.06"
2024-05-28_13-07-04.306477,"92.73,93.17"
2024-05-28_13-07-04.339188,"90.58,76.76"
2024-05-28_13-07-04.372015,"96.42,67.30"
2024-05-28_13-07-04.404702,"110.24,58.06"
2024-05-28_13-07-04.437461,"88.92,55.00"
2024-05-28_13-07-04.466804,"73.47,55.78"
2024-05-28_13-07-04.500092,"80.47,55.33"
2024-05-28_13-07-04.531854,"77.74,54.43"
2024-05-28_13-07-04.564638,"69.57,97.53"
2024-05-28_13-07-04.597409,"80.12,84.63"
2024-05-28_13-07-04.630356,"75.89,88.47"
2024-05-28_13-07-04.662984,"81.70,85.36"
2024-05-28_13-07-04.691696,"93.33,86.19"
2024-05-28_13-07-04.724578,"106.71,86.20"
2024-05-28_13-07-04.757256,"98.44,54.52"
2024-05-28_13-07-04.790055,"100.23,54.41"
2024-05-28_13-07-04.822917,"85.53,56.98"
2024-05-28_13-07-04.855510,"69.46,47.62"
2024-05-28_13-07-04.888308,"70.00,58.30"
2024-05-28_13-07-04.917057,"75.58,81.24"
2024-05-28_13-07-04.949870,"68.12,93.36"
2024-05-28_13-07-04.982674,"81.37,86.99"
2024-05-28_13-07-05.015563,"72.99,81.09"
2024-05-28_13-07-05.048299,"94.00,98.23"
2024-05-28_13-07-05.081023,"92.27,77.58"
2024-05-28_13-07-05.114253,"88.99,82.44"
2024-05-28_13-07-05.142503,"109.53,82.88"
2024-05-28_13-07-05.175324,"95.54,54.42"
2024-05-28_13-07-05.208106,"88.38,54.19"
2024-05-28_13-07-05.240892,"65.14,55.05"
2024-05-28_13-07-05.273755,"68.85,52.18"
2024-05-28_13-07-05.306337,"72.48,87.85"
2024-05-28_13-07-05.339145,"76.68,81.91"
2024-05-28_13-07-05.368021,"75.36,88.70"
2024-05-28_13-07-05.400709,"80.41,79.45"
2024-05-28_13-07-05.433473,"80.11,90.48"
2024-05-28_13-07-05.466307,"108.40,85.95"
2024-05-28_13-07-05.499086,"81.88,74.30"
2024-05-28_13-07-05.531872,"95.19,53.95"
2024-05-28_13-07-05.564924,"101.25,57.33"
2024-05-28_13-07-05.593410,"71.61,49.10"
2024-05-28_13-07-05.626125,"73.70,59.11"
2024-05-28_13-07-05.666540,"80.07,67.78"
2024-05-28_13-07-05.691938,"68.07,73.74"
2024-05-28_13-07-05.724720,"73.84,93.05"
2024-05-28_13-07-05.757209,"76.45,79.36"
2024-05-28_13-07-05.789978,"95.62,99.74"
2024-05-28_13-07-05.818790,"88.34,81.38"
2024-05-28_13-07-05.851555,"99.18,81.87"
2024-05-28_13-07-05.884463,"96.88,82.14"
2024-05-28_13-07-05.917140,"96.78,54.74"
2024-05-28_13-07-05.950018,"90.22,54.38"
2024-05-28_13-07-05.982794,"68.38,54.21"
2024-05-28_13-07-06.015435,"71.97,53.21"
2024-05-28_13-07-06.044178,"72.41,99.58"
2024-05-28_13-07-06.076945,"76.21,82.03"
2024-05-28_13-07-06.109809,"76.50,88.07"
2024-05-28_13-07-06.142576,"81.44,80.49"
2024-05-28_13-07-06.175355,"85.66,88.89"
2024-05-28_13-07-06.208178,"107.36,86.01"
2024-05-28_13-07-06.240884,"85.20,75.45"
2024-05-28_13-07-06.273713,"105.59,53.48"
2024-05-28_13-07-06.302391,"102.96,58.11"
2024-05-28_13-07-06.335183,"69.97,48.06"
2024-05-28_13-07-06.368028,"71.77,58.70"
2024-05-28_13-07-06.400749,"81.45,58.06"
2024-05-28_13-07-06.433636,"64.01,77.90"
2024-05-28_13-07-06.466302,"78.52,88.59"
2024-05-28_13-07-06.495018,"71.00,81.67"
2024-05-28_13-07-06.527973,"85.54,101.30"
2024-05-28_13-07-06.560644,"86.47,86.19"
2024-05-28_13-07-06.593376,"85.69,82.34"
2024-05-28_13-07-06.626151,"103.53,68.06"
2024-05-28_13-07-06.658974,"99.56,54.51"
2024-05-28_13-07-06.691716,"99.21,54.22"
2024-05-28_13-07-06.720408,"71.67,54.76"
2024-05-28_13-07-06.753224,"68.43,53.56"
2024-05-28_13-07-06.786000,"83.30,58.27"
2024-05-28_13-07-06.819114,"73.00,84.67"
2024-05-28_13-07-06.851572,"78.64,87.21"
2024-05-28_13-07-06.884459,"82.10,83.72"
2024-05-28_13-07-06.917219,"82.28,93.57"
2024-05-28_13-07-06.949853,"100.61,91.13"
2024-05-28_13-07-06.978835,"79.54,72.27"
2024-05-28_13-07-07.011416,"96.95,54.61"
2024-05-28_13-07-07.044223,"100.89,57.97"
2024-05-28_13-07-07.076999,"77.37,48.50"
2024-05-28_13-07-07.109805,"73.90,59.34"
2024-05-28_13-07-07.142583,"70.69,58.17"
2024-05-28_13-07-07.175269,"65.68,82.92"
2024-05-28_13-07-07.204057,"82.04,87.03"
2024-05-28_13-07-07.236853,"75.12,79.75"
2024-05-28_13-07-07.269590,"72.71,104.43"
2024-05-28_13-07-07.302398,"85.70,87.62"
2024-05-28_13-07-07.335378,"96.61,82.28"
2024-05-28_13-07-07.367954,"103.61,76.83"
2024-05-28_13-07-07.400831,"100.08,54.74"
2024-05-28_13-07-07.429399,"94.79,54.54"
2024-05-28_13-07-07.462305,"72.58,54.12"
2024-05-28_13-07-07.495024,"73.10,83.83"
2024-05-28_13-07-07.527811,"79.59,80.97"
2024-05-28_13-07-07.560706,"69.78,83.92"
2024-05-28_13-07-07.593331,"68.25,93.73"
2024-05-28_13-07-07.626150,"77.83,82.41"
2024-05-28_13-07-07.654848,"83.85,83.18"
2024-05-28_13-07-07.687650,"99.60,93.11"
2024-05-28_13-07-07.720432,"79.60,82.83"
2024-05-28_13-07-07.753197,"108.28,69.07"
2024-05-28_13-07-07.786005,"101.26,58.19"
2024-05-28_13-07-07.818840,"81.88,47.93"
2024-05-28_13-07-07.851582,"72.12,59.97"
2024-05-28_13-07-07.880245,"71.24,57.44"
2024-05-28_13-07-07.913210,"68.89,94.93"
2024-05-28_13-07-07.945810,"76.70,88.77"
2024-05-28_13-07-07.978596,"72.57,80.69"
2024-05-28_13-07-08.011392,"73.57,96.72"
2024-05-28_13-07-08.044194,"87.02,82.11"
2024-05-28_13-07-08.076980,"93.85,81.72"
2024-05-28_13-07-08.105682,"102.18,74.96"
2024-05-28_13-07-08.138463,"109.79,54.84"
2024-05-28_13-07-08.171266,"87.97,55.48"
2024-05-28_13-07-08.204016,"73.85,53.96"
2024-05-28_13-07-08.236797,"69.11,53.16"
2024-05-28_13-07-08.269555,"82.37,88.36"
2024-05-28_13-07-08.302271,"70.63,85.77"
2024-05-28_13-07-08.331050,"77.42,87.48"
2024-05-28_13-07-08.363911,"82.06,83.01"
2024-05-28_13-07-08.396717,"78.89,93.11"
2024-05-28_13-07-08.429380,"99.89,92.08"
2024-05-28_13-07-08.462245,"87.61,83.07"
2024-05-28_13-07-08.495054,"109.44,69.53"
2024-05-28_13-07-08.527755,"88.22,57.94"
2024-05-28_13-07-08.556474,"79.12,47.91"
2024-05-28_13-07-08.589267,"72.83,58.18"
2024-05-28_13-07-08.622005,"73.83,57.79"
2024-05-28_13-07-08.654820,"67.51,98.36"
2024-05-28_13-07-08.687664,"79.63,87.90"
2024-05-28_13-07-08.720356,"85.79,79.91"
2024-05-28_13-07-08.753169,"80.94,94.95"
2024-05-28_13-07-08.782075,"83.41,88.50"
2024-05-28_13-07-08.815416,"83.21,87.43"
2024-05-28_13-07-08.847706,"101.38,90.43"
2024-05-28_13-07-08.880193,"87.22,55.26"
2024-05-28_13-07-08.913028,"88.29,55.22"
2024-05-28_13-07-08.946012,"76.56,54.34"
2024-05-28_13-07-08.978529,"74.61,54.22"
2024-05-28_13-07-09.007285,"77.04,74.40"
2024-05-28_13-07-09.040067,"69.45,86.00"
2024-05-28_13-07-09.072868,"75.74,89.27"
2024-05-28_13-07-09.105645,"77.45,84.67"
2024-05-28_13-07-09.138444,"79.13,85.67"
2024-05-28_13-07-09.171267,"96.00,99.56"
2024-05-28_13-07-09.203851,"84.46,76.24"
2024-05-28_13-07-09.232817,"103.27,78.93"
2024-05-28_13-07-09.266451,"88.06,58.86"
2024-05-28_13-07-09.298243,"91.86,48.00"
2024-05-28_13-07-09.331130,"77.25,59.96"
2024-05-28_13-07-09.363923,"56.95,57.52"
2024-05-28_13-07-09.396658,"77.14,58.58"
2024-05-28_13-07-09.429390,"73.55,90.87"
2024-05-28_13-07-09.458098,"84.37,80.82"
2024-05-28_13-07-09.490905,"78.87,95.61"
2024-05-28_13-07-09.523609,"78.34,91.98"
2024-05-28_13-07-09.556525,"86.67,84.84"
2024-05-28_13-07-09.589251,"105.49,79.60"
2024-05-28_13-07-09.622054,"91.84,69.93"
2024-05-28_13-07-09.654682,"106.81,54.77"
2024-05-28_13-07-09.684175,"80.34,53.62"
2024-05-28_13-07-09.717152,"73.29,54.12"
2024-05-28_13-07-09.749343,"76.69,74.02"
2024-05-28_13-07-09.781852,"69.90,92.70"
2024-05-28_13-07-09.814638,"75.94,88.67"
2024-05-28_13-07-09.847546,"82.23,82.19"
2024-05-28_13-07-09.880247,"75.52,86.42"
2024-05-28_13-07-09.908979,"92.49,96.87"
2024-05-28_13-07-09.941763,"81.54,81.28"
2024-05-28_13-07-09.974487,"106.38,68.09"
2024-05-28_13-07-10.007317,"102.80,58.44"
2024-05-28_13-07-10.040171,"85.60,48.51"
2024-05-28_13-07-10.072856,"80.13,59.42"
2024-05-28_13-07-10.105598,"74.30,58.04"
2024-05-28_13-07-10.134328,"74.11,59.33"
2024-05-28_13-07-10.167866,"71.31,93.14"
2024-05-28_13-07-10.200044,"82.58,82.39"
2024-05-28_13-07-10.233127,"77.20,96.20"
2024-05-28_13-07-10.267837,"79.26,91.88"
2024-05-28_13-07-10.298177,"89.21,84.89"
2024-05-28_13-07-10.331014,"97.24,83.62"
2024-05-28_13-07-10.359707,"81.83,71.84"
2024-05-28_13-07-10.392562,"90.11,56.16"
2024-05-28_13-07-10.425272,"77.42,54.40"
2024-05-28_13-07-10.458080,"69.01,55.68"
2024-05-28_13-07-10.490866,"75.50,71.40"
2024-05-28_13-07-10.523583,"68.41,73.74"
2024-05-28_13-07-10.556303,"71.50,91.97"
2024-05-28_13-07-10.585102,"65.73,83.67"
2024-05-28_13-07-10.617943,"76.30,88.69"
2024-05-28_13-07-10.650874,"91.88,95.24"
2024-05-28_13-07-10.683553,"87.16,77.35"
2024-05-28_13-07-10.718746,"105.26,66.96"
2024-05-28_13-07-10.749061,"94.62,58.69"
2024-05-28_13-07-10.781822,"86.19,48.50"
2024-05-28_13-07-10.810503,"79.92,59.63"
2024-05-28_13-07-10.843307,"71.57,58.42"
2024-05-28_13-07-10.875996,"76.52,55.16"
2024-05-28_13-07-10.908829,"72.11,92.67"
2024-05-28_13-07-10.941628,"84.70,81.53"
2024-05-28_13-07-10.974405,"78.35,94.77"
2024-05-28_13-07-11.007106,"84.55,81.49"
2024-05-28_13-07-11.035938,"79.07,85.47"
2024-05-28_13-07-11.068737,"103.40,84.57"
2024-05-28_13-07-11.101491,"95.16,70.67"
2024-05-28_13-07-11.134431,"90.39,55.31"
2024-05-28_13-07-11.167960,"76.95,54.73"
2024-05-28_13-07-11.199790,"68.23,54.34"
2024-05-28_13-07-11.232811,"73.29,80.70"
2024-05-28_13-07-11.261314,"75.56,79.33"
2024-05-28_13-07-11.294068,"73.62,91.13"
2024-05-28_13-07-11.326813,"66.87,83.80"
2024-05-28_13-07-11.359666,"81.19,85.29"
2024-05-28_13-07-11.392435,"95.49,96.35"
2024-05-28_13-07-11.425177,"86.33,83.34"
2024-05-28_13-07-11.457928,"106.37,68.14"
2024-05-28_13-07-11.490774,"103.60,58.16"
2024-05-28_13-07-11.519698,"83.86,48.06"
2024-05-28_13-07-11.552299,"76.86,59.61"
2024-05-28_13-07-11.586670,"71.89,58.09"
2024-05-28_13-07-11.617862,"75.25,86.93"
2024-05-28_13-07-11.650702,"70.66,84.42"
2024-05-28_13-07-11.683330,"71.66,82.37"
2024-05-28_13-07-11.716336,"83.33,93.79"
2024-05-28_13-07-11.744929,"85.89,90.38"
2024-05-28_13-07-11.777628,"74.12,88.34"
2024-05-28_13-07-11.810467,"91.81,58.93"
2024-05-28_13-07-11.843179,"98.01,55.09"
2024-05-28_13-07-11.876007,"90.77,55.81"
2024-05-28_13-07-11.908699,"70.08,53.86"
2024-05-28_13-07-11.941458,"67.67,53.32"
2024-05-28_13-07-11.970325,"74.53,102.19"
2024-05-28_13-07-12.003085,"76.36,82.26"
2024-05-28_13-07-12.035934,"79.55,87.18"
2024-05-28_13-07-12.069114,"63.91,91.89"
2024-05-28_13-07-12.101555,"78.76,93.40"
2024-05-28_13-07-12.134287,"91.28,91.82"
2024-05-28_13-07-12.169334,"86.45,80.17"
2024-05-28_13-07-12.195808,"69.21,56.92"
2024-05-28_13-07-12.228413,"82.11,59.07"
2024-05-28_13-07-12.261213,"72.59,49.79"
2024-05-28_13-07-12.294070,"73.05,59.96"
2024-05-28_13-07-12.326782,"71.70,71.50"
2024-05-28_13-07-12.359486,"72.74,83.60"
2024-05-28_13-07-12.392223,"84.34,88.89"
2024-05-28_13-07-12.421123,"76.38,92.25"
2024-05-28_13-07-12.454000,"87.07,98.31"
2024-05-28_13-07-12.486761,"78.81,76.54"
2024-05-28_13-07-12.519486,"90.41,68.83"
2024-05-28_13-07-12.552226,"99.60,58.76"
2024-05-28_13-07-12.585192,"89.89,55.42"
2024-05-28_13-07-12.617979,"78.66,55.33"
2024-05-28_13-07-12.646545,"78.00,56.76"
2024-05-28_13-07-12.679293,"76.52,56.96"
2024-05-28_13-07-12.712032,"66.37,99.64"
2024-05-28_13-07-12.744797,"80.03,85.44"
2024-05-28_13-07-12.777564,"79.04,86.87"
2024-05-28_13-07-12.810386,"84.04,90.68"
2024-05-28_13-07-12.843045,"80.11,93.06"
2024-05-28_13-07-12.871866,"102.39,70.45"
2024-05-28_13-07-12.904681,"103.35,55.88"
2024-05-28_13-07-12.937701,"97.69,54.87"
2024-05-28_13-07-12.970430,"75.69,59.38"
2024-05-28_13-07-13.003086,"82.61,47.32"
2024-05-28_13-07-13.035785,"71.81,61.76"
2024-05-28_13-07-13.068486,"69.89,82.98"
2024-05-28_13-07-13.097385,"72.21,92.96"
2024-05-28_13-07-13.130183,"86.04,87.16"
2024-05-28_13-07-13.162801,"80.74,93.03"
2024-05-28_13-07-13.195625,"94.29,89.30"
2024-05-28_13-07-13.229320,"92.43,62.64"
2024-05-28_13-07-13.261098,"86.02,55.66"
2024-05-28_13-07-13.293821,"107.10,58.63"
2024-05-28_13-07-13.322655,"69.22,56.59"
2024-05-28_13-07-13.355383,"71.89,54.60"
2024-05-28_13-07-13.388229,"87.42,57.20"
2024-05-28_13-07-13.420982,"74.42,80.54"
2024-05-28_13-07-13.453761,"72.74,96.09"
2024-05-28_13-07-13.486684,"67.16,84.59"
2024-05-28_13-07-13.519444,"82.95,92.92"
2024-05-28_13-07-13.548010,"94.53,78.72"
2024-05-28_13-07-13.580926,"92.45,73.44"
2024-05-28_13-07-13.613626,"73.69,61.78"
2024-05-28_13-07-13.646421,"91.71,55.80"
2024-05-28_13-07-13.679210,"79.47,56.09"
2024-05-28_13-07-13.711964,"66.85,70.68"
2024-05-28_13-07-13.744635,"82.53,87.38"
2024-05-28_13-07-13.773661,"65.09,99.77"
2024-05-28_13-07-13.806172,"78.88,83.88"
2024-05-28_13-07-13.839012,"72.36,90.80"
2024-05-28_13-07-13.872100,"87.75,85.03"
2024-05-28_13-07-13.904537,"83.87,84.41"
2024-05-28_13-07-13.937495,"97.76,81.80"
2024-05-28_13-07-13.970105,"75.90,54.59"
2024-05-28_13-07-14.002813,"88.44,59.71"
2024-05-28_13-07-14.031594,"80.06,60.78"
2024-05-28_13-07-14.064365,"81.34,57.76"
2024-05-28_13-07-14.097229,"72.08,71.13"
2024-05-28_13-07-14.129975,"71.26,73.11"
2024-05-28_13-07-14.162708,"82.11,95.71"
2024-05-28_13-07-14.195442,"77.62,97.63"
2024-05-28_13-07-14.228124,"78.16,93.28"
2024-05-28_13-07-14.256981,"90.56,85.20"
2024-05-28_13-07-14.289937,"88.65,84.46"
2024-05-28_13-07-14.322928,"69.61,52.43"
2024-05-28_13-07-14.355466,"94.95,62.25"
2024-05-28_13-07-14.388128,"67.45,57.02"
2024-05-28_13-07-14.420981,"76.44,55.28"
2024-05-28_13-07-14.453631,"85.59,57.66"
2024-05-28_13-07-14.482369,"76.14,86.26"
2024-05-28_13-07-14.515271,"65.95,102.69"
2024-05-28_13-07-14.547988,"82.77,81.77"
2024-05-28_13-07-14.580743,"76.98,95.60"
2024-05-28_13-07-14.641541,"89.08,82.27"
2024-05-28_13-07-14.646217,"86.85,74.89"
2024-05-28_13-07-14.679000,"71.87,60.03"
2024-05-28_13-07-14.707911,"86.18,54.15"
2024-05-28_13-07-14.740578,"80.56,56.34"
2024-05-28_13-07-14.773442,"82.83,101.59"
2024-05-28_13-07-14.806148,"73.42,73.14"
2024-05-28_13-07-14.838855,"65.81,74.17"
2024-05-28_13-07-14.871747,"72.86,85.95"
2024-05-28_13-07-14.904498,"70.94,92.12"
2024-05-28_13-07-14.933288,"88.91,94.99"
2024-05-28_13-07-14.965890,"75.35,70.86"
2024-05-28_13-07-14.998660,"101.41,57.23"
2024-05-28_13-07-15.031511,"82.59,58.83"
2024-05-28_13-07-15.064513,"87.77,52.05"
2024-05-28_13-07-15.098955,"87.15,60.51"
2024-05-28_13-07-15.129833,"71.38,65.09"
2024-05-28_13-07-15.158481,"63.87,76.41"
2024-05-28_13-07-15.191297,"74.41,83.72"
2024-05-28_13-07-15.224158,"68.87,84.68"
2024-05-28_13-07-15.256863,"79.22,106.78"
2024-05-28_13-07-15.289624,"87.52,80.88"
2024-05-28_13-07-15.325889,"80.49,84.29"
2024-05-28_13-07-15.355179,"96.67,61.01"
2024-05-28_13-07-15.383875,"79.83,55.88"
2024-05-28_13-07-15.416754,"79.68,56.67"
2024-05-28_13-07-15.449458,"68.30,54.49"
2024-05-28_13-07-15.482287,"80.02,52.52"
2024-05-28_13-07-15.515035,"68.72,100.93"
2024-05-28_13-07-15.547794,"73.55,87.50"
2024-05-28_13-07-15.580559,"67.05,92.63"
2024-05-28_13-07-15.609272,"77.05,84.64"
2024-05-28_13-07-15.642037,"79.37,92.93"
2024-05-28_13-07-15.674791,"103.54,78.80"
2024-05-28_13-07-15.707748,"71.08,56.35"
2024-05-28_13-07-15.740389,"93.22,54.71"
2024-05-28_13-07-15.773169,"72.51,58.26"
2024-05-28_13-07-15.805841,"79.53,50.66"
2024-05-28_13-07-15.834661,"72.23,80.19"
2024-05-28_13-07-15.867428,"69.28,81.93"
2024-05-28_13-07-15.900266,"83.42,86.36"
2024-05-28_13-07-15.933039,"73.55,86.42"
2024-05-28_13-07-15.965812,"82.95,89.45"
2024-05-28_13-07-15.998628,"99.85,85.03"
2024-05-28_13-07-16.031225,"97.60,78.86"
2024-05-28_13-07-16.060082,"99.19,53.33"
2024-05-28_13-07-16.092792,"97.03,57.59"
2024-05-28_13-07-16.125588,"66.95,56.64"
2024-05-28_13-07-16.158408,"70.92,53.61"
2024-05-28_13-07-16.191285,"81.10,60.62"
2024-05-28_13-07-16.223922,"78.99,80.58"
2024-05-28_13-07-16.256689,"71.20,95.42"
2024-05-28_13-07-16.285541,"80.00,74.40"
2024-05-28_13-07-16.318190,"85.87,57.29"
2024-05-28_13-07-16.350969,"90.40,56.69"
2024-05-28_13-07-16.383807,"94.52,46.95"
2024-05-28_13-07-16.416581,"95.76,57.88"
2024-05-28_13-07-16.449347,"85.85,55.52"
2024-05-28_13-07-16.482075,"76.56,54.90"
2024-05-28_13-07-16.510786,"75.69,59.34"
2024-05-28_13-07-16.543659,"79.85,51.77"
2024-05-28_13-07-16.576345,"67.35,97.59"
2024-05-28_13-07-16.609133,"69.48,82.90"
2024-05-28_13-07-16.641940,"86.56,82.26"
2024-05-28_13-07-16.675990,"96.79,86.78"
2024-05-28_13-07-16.707397,"95.13,91.39"
2024-05-28_13-07-16.743011,"112.27,70.50"
2024-05-28_13-07-16.769147,"95.72,52.27"
2024-05-28_13-07-16.801723,"84.74,54.64"
2024-05-28_13-07-16.834524,"67.54,59.61"
2024-05-28_13-07-16.867315,"87.18,57.87"
2024-05-28_13-07-16.900108,"62.92,96.33"
2024-05-28_13-07-16.932773,"76.88,81.08"
2024-05-28_13-07-16.965496,"71.97,85.23"
2024-05-28_13-07-16.994351,"98.53,93.46"
2024-05-28_13-07-17.027128,"91.60,78.05"
2024-05-28_13-07-17.059927,"100.18,84.60"
2024-05-28_13-07-17.092765,"101.71,58.73"
2024-05-28_13-07-17.125454,"105.94,47.12"
2024-05-28_13-07-17.158147,"80.88,59.27"
2024-05-28_13-07-17.190879,"56.25,58.52"
2024-05-28_13-07-17.219693,"75.58,72.61"
2024-05-28_13-07-17.252552,"74.21,76.63"
2024-05-28_13-07-17.285311,"86.54,79.40"
2024-05-28_13-07-17.318095,"80.65,93.41"
2024-05-28_13-07-17.350869,"85.23,89.13"
2024-05-28_13-07-17.383556,"97.63,80.34"
2024-05-28_13-07-17.416255,"101.21,84.81"
2024-05-28_13-07-17.445113,"100.41,70.51"
2024-05-28_13-07-17.478000,"96.89,54.72"
2024-05-28_13-07-17.510607,"77.33,54.52"
2024-05-28_13-07-17.543863,"76.29,80.52"
2024-05-28_13-07-17.576212,"74.28,79.42"
2024-05-28_13-07-17.608995,"76.71,84.05"
2024-05-28_13-07-17.641652,"91.49,82.66"
2024-05-28_13-07-17.670758,"86.39,79.65"
2024-05-28_13-07-17.703276,"90.02,89.66"
2024-05-28_13-07-17.736054,"105.70,82.41"
2024-05-28_13-07-17.769016,"94.69,69.94"
2024-05-28_13-07-17.801626,"93.51,54.65"
2024-05-28_13-07-17.834339,"86.84,57.58"
2024-05-28_13-07-17.867053,"71.39,49.79"
2024-05-28_13-07-17.896103,"77.13,95.09"
2024-05-28_13-07-17.928655,"68.05,72.98"
2024-05-28_13-07-17.961451,"80.05,89.03"
2024-05-28_13-07-17.994215,"97.44,83.73"
2024-05-28_13-07-18.027171,"88.42,79.69"
2024-05-28_13-07-18.059801,"103.04,84.41"
2024-05-28_13-07-18.092425,"94.76,72.72"
2024-05-28_13-07-18.121370,"99.25,69.77"
2024-05-28_13-07-18.154350,"96.73,56.96"
2024-05-28_13-07-18.186794,"63.61,56.70"
2024-05-28_13-07-18.219536,"67.17,55.09"
2024-05-28_13-07-18.252359,"77.80,61.07"
2024-05-28_13-07-18.285213,"75.16,73.79"
2024-05-28_13-07-18.317807,"87.92,90.30"
2024-05-28_13-07-18.346619,"85.42,89.33"
2024-05-28_13-07-18.379401,"95.71,80.63"
2024-05-28_13-07-18.412156,"97.73,78.68"
2024-05-28_13-07-18.444983,"110.38,77.35"
2024-05-28_13-07-18.477706,"114.30,57.42"
2024-05-28_13-07-18.510471,"77.09,55.28"
2024-05-28_13-07-18.543577,"71.26,55.13"
2024-05-28_13-07-18.572209,"73.54,71.45"
2024-05-28_13-07-18.604895,"72.76,85.65"
2024-05-28_13-07-18.637726,"74.05,95.96"
2024-05-28_13-07-18.670316,"88.17,82.07"
2024-05-28_13-07-18.703086,"93.10,78.98"
2024-05-28_13-07-18.735967,"103.90,78.12"
2024-05-28_13-07-18.768578,"92.56,84.17"
2024-05-28_13-07-18.797504,"108.49,69.20"
2024-05-28_13-07-18.830199,"94.47,52.20"
2024-05-28_13-07-18.862923,"73.68,53.34"
2024-05-28_13-07-18.895675,"62.57,59.16"
2024-05-28_13-07-18.928516,"82.57,58.64"
2024-05-28_13-07-18.961254,"67.81,75.15"
2024-05-28_13-07-18.993989,"81.90,80.68"
2024-05-28_13-07-19.022833,"89.45,83.47"
2024-05-28_13-07-19.055496,"101.92,95.56"
2024-05-28_13-07-19.088345,"89.90,77.79"
2024-05-28_13-07-19.121123,"100.06,69.01"
2024-05-28_13-07-19.153844,"96.94,57.21"
2024-05-28_13-07-19.186669,"89.81,46.88"
2024-05-28_13-07-19.219346,"70.88,60.40"
2024-05-28_13-07-19.252071,"69.56,58.43"
2024-05-28_13-07-19.280926,"69.65,54.59"
2024-05-28_13-07-19.313706,"82.01,86.49"
2024-05-28_13-07-19.346456,"77.13,79.26"
2024-05-28_13-07-19.379240,"98.69,90.18"
2024-05-28_13-07-19.412032,"93.40,81.71"
2024-05-28_13-07-19.444748,"90.49,83.78"
2024-05-28_13-07-19.477488,"108.92,58.61"
2024-05-28_13-07-19.506289,"95.13,54.21"
2024-05-28_13-07-19.539037,"78.53,54.91"
2024-05-28_13-07-19.571882,"61.71,55.81"
2024-05-28_13-07-19.604631,"80.26,52.08"
2024-05-28_13-07-19.637625,"73.13,88.47"
2024-05-28_13-07-19.670084,"79.10,84.85"
2024-05-28_13-07-19.702810,"80.79,84.57"
2024-05-28_13-07-19.731607,"88.91,90.50"
2024-05-28_13-07-19.764372,"100.36,84.35"
2024-05-28_13-07-19.797236,"105.10,77.26"
2024-05-28_13-07-19.836024,"96.45,55.23"
2024-05-28_13-07-19.862767,"78.86,55.40"
2024-05-28_13-07-19.895556,"74.24,58.70"
2024-05-28_13-07-19.928291,"77.64,48.46"
2024-05-28_13-07-19.957126,"61.81,101.77"
2024-05-28_13-07-19.989775,"79.00,81.03"
2024-05-28_13-07-20.022579,"73.88,85.47"
2024-05-28_13-07-20.055390,"93.61,84.70"
2024-05-28_13-07-20.088207,"89.83,82.21"
2024-05-28_13-07-20.120867,"93.45,78.57"
2024-05-28_13-07-20.153571,"91.13,52.97"
2024-05-28_13-07-20.182341,"98.96,52.72"
2024-05-28_13-07-20.215167,"77.48,59.05"
2024-05-28_13-07-20.247947,"77.29,57.86"
2024-05-28_13-07-20.280777,"75.22,57.67"
2024-05-28_13-07-20.313549,"67.68,82.72"
2024-05-28_13-07-20.346256,"89.62,83.89"
2024-05-28_13-07-20.378969,"101.89,88.57"
2024-05-28_13-07-20.407773,"87.59,88.32"
2024-05-28_13-07-20.440607,"106.15,78.40"
2024-05-28_13-07-20.473276,"99.35,80.30"
2024-05-28_13-07-20.506221,"98.18,65.40"
2024-05-28_13-07-20.538861,"99.58,57.69"
2024-05-28_13-07-20.571577,"59.85,57.59"
2024-05-28_13-07-20.604308,"67.43,55.46"
2024-05-28_13-07-20.633074,"80.95,58.73"
2024-05-28_13-07-20.665879,"78.07,73.45"
2024-05-28_13-07-20.698700,"87.82,91.47"
2024-05-28_13-07-20.731445,"87.66,89.82"
2024-05-28_13-07-20.764262,"93.60,82.61"
2024-05-28_13-07-20.797011,"93.18,75.73"
2024-05-28_13-07-20.829696,"102.27,80.28"
2024-05-28_13-07-20.858550,"96.22,53.02"
2024-05-28_13-07-20.891327,"86.10,52.58"
2024-05-28_13-07-20.924138,"66.46,54.90"
2024-05-28_13-07-20.956834,"73.48,59.46"
2024-05-28_13-07-20.989600,"75.49,63.34"
2024-05-28_13-07-21.022385,"79.07,85.04"
2024-05-28_13-07-21.055092,"89.19,80.28"
2024-05-28_13-07-21.083885,"89.71,88.65"
2024-05-28_13-07-21.116661,"108.73,86.10"
2024-05-28_13-07-21.149453,"84.70,72.10"
2024-05-28_13-07-21.182207,"106.74,68.69"
2024-05-28_13-07-21.215075,"97.22,56.81"
2024-05-28_13-07-21.247744,"77.35,48.01"
2024-05-28_13-07-21.280458,"66.31,61.90"
2024-05-28_13-07-21.309229,"80.36,59.21"
2024-05-28_13-07-21.341995,"63.54,78.38"
2024-05-28_13-07-21.374789,"89.81,84.99"
2024-05-28_13-07-21.407549,"70.13,77.54"
2024-05-28_13-07-21.440386,"101.27,89.98"
2024-05-28_13-07-21.473118,"93.38,77.72"
2024-05-28_13-07-21.505802,"79.73,78.86"
2024-05-28_13-07-21.534610,"113.12,56.92"
2024-05-28_13-07-21.567381,"79.58,55.29"
2024-05-28_13-07-21.600162,"68.57,54.92"
2024-05-28_13-07-21.632931,"70.52,57.56"
2024-05-28_13-07-21.665713,"72.96,88.15"
2024-05-28_13-07-21.698486,"87.16,89.82"
2024-05-28_13-07-21.731195,"76.16,80.26"
2024-05-28_13-07-21.759946,"93.83,82.88"
2024-05-28_13-07-21.792805,"99.72,75.69"
2024-05-28_13-07-21.825541,"106.51,83.93"
2024-05-28_13-07-21.858436,"110.52,58.03"
2024-05-28_13-07-21.891109,"87.35,55.12"
2024-05-28_13-07-21.923865,"73.20,55.71"
2024-05-28_13-07-21.956586,"74.58,59.30"
2024-05-28_13-07-21.985349,"81.33,81.02"
2024-05-28_13-07-22.018156,"70.80,91.50"
2024-05-28_13-07-22.050895,"74.83,80.81"
2024-05-28_13-07-22.083645,"91.53,90.75"
2024-05-28_13-07-22.116548,"100.93,80.55"
2024-05-28_13-07-22.149265,"91.06,82.66"
2024-05-28_13-07-22.181939,"92.47,68.87"
2024-05-28_13-07-22.214660,"102.43,51.87"
2024-05-28_13-07-22.243483,"81.75,52.55"
2024-05-28_13-07-22.276243,"61.31,60.31"
2024-05-28_13-07-22.309049,"85.84,58.46"
2024-05-28_13-07-22.341856,"65.09,75.93"
2024-05-28_13-07-22.374608,"78.50,80.90"
2024-05-28_13-07-22.407325,"78.25,82.84"
2024-05-28_13-07-22.440061,"101.27,89.48"
2024-05-28_13-07-22.468860,"86.50,76.96"
2024-05-28_13-07-22.501665,"105.63,76.99"
2024-05-28_13-07-22.534411,"98.29,57.68"
2024-05-28_13-07-22.567199,"95.43,46.71"
2024-05-28_13-07-22.600030,"73.14,60.30"
2024-05-28_13-07-22.632693,"70.80,58.57"
2024-05-28_13-07-22.665403,"71.03,75.08"
2024-05-28_13-07-22.694216,"78.58,86.34"
2024-05-28_13-07-22.726977,"80.04,77.89"
2024-05-28_13-07-22.759788,"99.28,98.40"
2024-05-28_13-07-22.792540,"92.02,81.05"
2024-05-28_13-07-22.825340,"93.44,79.16"
2024-05-28_13-07-22.858075,"112.11,70.40"
2024-05-28_13-07-22.890812,"96.26,53.57"
2024-05-28_13-07-22.919647,"85.65,53.31"
2024-05-28_13-07-22.952413,"66.56,53.99"
2024-05-28_13-07-22.985165,"80.79,51.36"
2024-05-28_13-07-23.017991,"71.04,96.50"
2024-05-28_13-07-23.050795,"78.17,82.04"
2024-05-28_13-07-23.083429,"80.40,84.11"
2024-05-28_13-07-23.116170,"87.42,89.00"
2024-05-28_13-07-23.145359,"100.53,86.45"
2024-05-28_13-07-23.179298,"78.54,56.09"
2024-05-28_13-07-23.210769,"81.37,55.12"
2024-05-28_13-07-23.243450,"77.41,56.82"
2024-05-28_13-07-23.276132,"80.75,59.30"
2024-05-28_13-07-23.308846,"82.28,47.22"
2024-05-28_13-07-23.341677,"67.98,81.68"
2024-05-28_13-07-23.370353,"73.59,82.52"
2024-05-28_13-07-23.403121,"87.51,85.04"
2024-05-28_13-07-23.436285,"96.92,80.39"
2024-05-28_13-07-23.468791,"92.63,83.93"
2024-05-28_13-07-23.501529,"99.51,84.47"
2024-05-28_13-07-23.534181,"97.25,67.08"
2024-05-28_13-07-23.566882,"96.92,52.96"
2024-05-28_13-07-23.595679,"92.98,57.35"
2024-05-28_13-07-23.628461,"62.58,57.81"
2024-05-28_13-07-23.661265,"78.31,54.76"
2024-05-28_13-07-23.694019,"72.47,80.31"
2024-05-28_13-07-23.726833,"90.73,85.43"
2024-05-28_13-07-23.759747,"88.71,89.86"
2024-05-28_13-07-23.792263,"82.80,90.74"
2024-05-28_13-07-23.821096,"102.70,78.93"
2024-05-28_13-07-23.853847,"82.00,73.67"
2024-05-28_13-07-23.886717,"85.46,64.61"
2024-05-28_13-07-23.919452,"104.63,57.09"
2024-05-28_13-07-23.952236,"59.81,56.98"
2024-05-28_13-07-23.984922,"69.34,54.27"
2024-05-28_13-07-24.017670,"79.62,60.45"
2024-05-28_13-07-24.046403,"78.49,74.73"
2024-05-28_13-07-24.079284,"84.86,91.98"
2024-05-28_13-07-24.112059,"83.29,84.47"
2024-05-28_13-07-24.144796,"87.49,82.84"
2024-05-28_13-07-24.177610,"96.33,79.20"
2024-05-28_13-07-24.210274,"96.60,83.41"
2024-05-28_13-07-24.243460,"112.36,53.14"
2024-05-28_13-07-24.271882,"81.58,53.18"
2024-05-28_13-07-24.304732,"68.63,52.78"
2024-05-28_13-07-24.337480,"71.61,58.74"
2024-05-28_13-07-24.370386,"73.38,81.50"
2024-05-28_13-07-24.403026,"65.30,96.51"
2024-05-28_13-07-24.435680,"85.32,86.85"
2024-05-28_13-07-24.468353,"78.72,90.21"
2024-05-28_13-07-24.497178,"97.16,89.31"
2024-05-28_13-07-24.529950,"87.35,75.01"
2024-05-28_13-07-24.562734,"109.12,68.91"
2024-05-28_13-07-24.595500,"99.04,56.82"
2024-05-28_13-07-24.628261,"70.29,48.43"
2024-05-28_13-07-24.660979,"66.47,60.31"
2024-05-28_13-07-24.693730,"74.33,84.22"
2024-05-28_13-07-24.722701,"74.25,90.26"
2024-05-28_13-07-24.755342,"74.53,87.08"
2024-05-28_13-07-24.788139,"79.70,84.80"
2024-05-28_13-07-24.820942,"98.95,87.28"
2024-05-28_13-07-24.853740,"98.35,76.59"
2024-05-28_13-07-24.886450,"92.12,69.05"
2024-05-28_13-07-24.919084,"99.39,58.00"
2024-05-28_13-07-24.948012,"77.56,55.29"
2024-05-28_13-07-24.980680,"71.35,54.90"
2024-05-28_13-07-25.013428,"71.43,56.91"
2024-05-28_13-07-25.046243,"72.33,87.84"
2024-05-28_13-07-25.078990,"85.56,90.61"
2024-05-28_13-07-25.111759,"74.90,81.66"
2024-05-28_13-07-25.144452,"92.70,88.41"
2024-05-28_13-07-25.173237,"95.92,77.78"
2024-05-28_13-07-25.206032,"90.77,91.87"
2024-05-28_13-07-25.238818,"93.12,69.41"
2024-05-28_13-07-25.271565,"85.93,55.24"
2024-05-28_13-07-25.304411,"76.89,54.43"
2024-05-28_13-07-25.337101,"59.77,59.65"
2024-05-28_13-07-25.369824,"85.36,49.65"
2024-05-28_13-07-25.398865,"70.00,79.74"
2024-05-28_13-07-25.431449,"78.87,83.71"
2024-05-28_13-07-25.464209,"82.84,84.09"
2024-05-28_13-07-25.496964,"98.86,87.21"
2024-05-28_13-07-25.529759,"85.75,88.05"
2024-05-28_13-07-25.562533,"100.64,82.79"
2024-05-28_13-07-25.595261,"100.70,52.48"
2024-05-28_13-07-25.628621,"81.45,53.29"
2024-05-28_13-07-25.656860,"81.16,60.37"
2024-05-28_13-07-25.689668,"84.31,71.43"
2024-05-28_13-07-25.722285,"61.91,74.56"
2024-05-28_13-07-25.755057,"87.79,78.28"
2024-05-28_13-07-25.787876,"82.99,81.00"
2024-05-28_13-07-25.820632,"100.99,93.21"
2024-05-28_13-07-25.849440,"84.93,76.31"
2024-05-28_13-07-25.882225,"105.42,88.75"
2024-05-28_13-07-25.914954,"84.82,58.37"
2024-05-28_13-07-25.947704,"89.91,46.94"
2024-05-28_13-07-25.980445,"71.64,60.04"
2024-05-28_13-07-26.013217,"69.17,58.72"
2024-05-28_13-07-26.045930,"69.88,57.88"
2024-05-28_13-07-26.074694,"82.88,84.59"
2024-05-28_13-07-26.107485,"83.56,77.23"
2024-05-28_13-07-26.140232,"100.53,99.37"
2024-05-28_13-07-26.173077,"97.78,76.66"
2024-05-28_13-07-26.205832,"94.58,86.46"
2024-05-28_13-07-26.238737,"99.95,59.03"
2024-05-28_13-07-26.271299,"83.50,55.44"
2024-05-28_13-07-26.300131,"76.58,56.29"
2024-05-28_13-07-26.332949,"60.16,57.45"
2024-05-28_13-07-26.365734,"78.05,78.50"
2024-05-28_13-07-26.398402,"74.14,87.78"
2024-05-28_13-07-26.431180,"84.31,82.76"
2024-05-28_13-07-26.464037,"93.67,81.28"
2024-05-28_13-07-26.496686,"89.74,88.20"
2024-05-28_13-07-26.529401,"104.93,86.02"
2024-05-28_13-07-26.558192,"99.76,81.17"
2024-05-28_13-07-26.591006,"95.20,54.98"
2024-05-28_13-07-26.623784,"92.79,52.67"
2024-05-28_13-07-26.656522,"61.51,58.60"
2024-05-28_13-07-26.689326,"87.02,50.43"
2024-05-28_13-07-26.721994,"60.24,96.53"
2024-05-28_13-07-26.754785,"84.60,79.70"
2024-05-28_13-07-26.783555,"90.86,82.90"
2024-05-28_13-07-26.816344,"96.25,80.71"
2024-05-28_13-07-26.849112,"89.69,82.86"
2024-05-28_13-07-26.881902,"93.75,88.65"
2024-05-28_13-07-26.914681,"103.01,53.34"
2024-05-28_13-07-26.947379,"87.05,53.25"
2024-05-28_13-07-26.980120,"64.47,60.62"
2024-05-28_13-07-27.008920,"86.41,58.95"
2024-05-28_13-07-27.041763,"63.96,97.98"
2024-05-28_13-07-27.074545,"78.42,80.33"
2024-05-28_13-07-27.107389,"85.96,84.54"
2024-05-28_13-07-27.140076,"97.43,100.77"
2024-05-28_13-07-27.172837,"96.16,75.27"
2024-05-28_13-07-27.205499,"92.00,84.09"
2024-05-28_13-07-27.234237,"90.38,74.07"
2024-05-28_13-07-27.267023,"98.30,46.89"
2024-05-28_13-07-27.299823,"74.71,59.85"
2024-05-28_13-07-27.332601,"71.10,58.38"
2024-05-28_13-07-27.365374,"71.91,76.81"
2024-05-28_13-07-27.398119,"78.09,87.05"
2024-05-28_13-07-27.430814,"80.40,77.45"
2024-05-28_13-07-27.459675,"100.80,89.23"
2024-05-28_13-07-27.492411,"93.43,78.53"
2024-05-28_13-07-27.525186,"94.60,80.29"
2024-05-28_13-07-27.558004,"114.94,70.60"
2024-05-28_13-07-27.590736,"95.06,54.62"
2024-05-28_13-07-27.623478,"79.28,54.48"
2024-05-28_13-07-27.656202,"59.40,56.91"
2024-05-28_13-07-27.684970,"79.21,53.90"
2024-05-28_13-07-27.717745,"76.08,86.56"
2024-05-28_13-07-27.750659,"72.85,82.08"
2024-05-28_13-07-27.783336,"91.84,80.75"
2024-05-28_13-07-27.816103,"90.40,85.72"
2024-05-28_13-07-27.848850,"97.51,88.83"
2024-05-28_13-07-27.881559,"101.36,82.17"
2024-05-28_13-07-27.910319,"94.20,54.91"
2024-05-28_13-07-27.943113,"91.28,53.13"
2024-05-28_13-07-27.975884,"60.11,59.30"
2024-05-28_13-07-28.008650,"87.02,50.53"
2024-05-28_13-07-28.041468,"61.00,84.21"
2024-05-28_13-07-28.074184,"83.73,80.23"
2024-05-28_13-07-28.106920,"93.56,82.94"
2024-05-28_13-07-28.135666,"99.76,81.27"
2024-05-28_13-07-28.168454,"92.54,83.44"
2024-05-28_13-07-28.201236,"97.30,81.82"
2024-05-28_13-07-28.233988,"93.69,52.70"
2024-05-28_13-07-28.266827,"91.99,52.93"
2024-05-28_13-07-28.299529,"64.35,61.19"
2024-05-28_13-07-28.332312,"74.32,58.87"
2024-05-28_13-07-28.361019,"67.73,57.40"
2024-05-28_13-07-28.393814,"78.90,80.01"
2024-05-28_13-07-28.426604,"77.95,84.08"
2024-05-28_13-07-28.459343,"97.34,94.85"
2024-05-28_13-07-28.492198,"93.44,77.65"
2024-05-28_13-07-28.524947,"102.91,87.66"
2024-05-28_13-07-28.557625,"88.36,72.29"
2024-05-28_13-07-28.590345,"104.94,46.84"
2024-05-28_13-07-28.619178,"78.56,59.56"
2024-05-28_13-07-28.651963,"55.52,58.87"
2024-05-28_13-07-28.684804,"71.83,59.46"
2024-05-28_13-07-28.717497,"77.91,87.85"
2024-05-28_13-07-28.750305,"79.49,78.18"
2024-05-28_13-07-28.783015,"91.59,88.81"
2024-05-28_13-07-28.811771,"91.27,83.65"
2024-05-28_13-07-28.844589,"103.24,79.36"
2024-05-28_13-07-28.877321,"111.66,80.39"
2024-05-28_13-07-28.910108,"99.94,54.49"
2024-05-28_13-07-28.942888,"89.12,54.30"
2024-05-28_13-07-28.975697,"61.53,56.32"
2024-05-28_13-07-29.008338,"80.45,54.88"
2024-05-28_13-07-29.037081,"70.75,96.29"
2024-05-28_13-07-29.069899,"83.03,81.21"
2024-05-28_13-07-29.102656,"89.90,83.38"
2024-05-28_13-07-29.135452,"87.89,81.01"
2024-05-28_13-07-29.168226,"101.07,86.28"
2024-05-28_13-07-29.200997,"106.11,78.91"
2024-05-28_13-07-29.233743,"98.44,55.47"
2024-05-28_13-07-29.266432,"102.15,53.25"
2024-05-28_13-07-29.295240,"67.82,57.89"
2024-05-28_13-07-29.328062,"78.01,50.84"
2024-05-28_13-07-29.360854,"64.88,91.63"
2024-05-28_13-07-29.393586,"77.83,80.82"
2024-05-28_13-07-29.426371,"91.15,83.95"
2024-05-28_13-07-29.459080,"95.80,89.07"
2024-05-28_13-07-29.492013,"95.95,81.62"
2024-05-28_13-07-29.520706,"99.52,89.56"
2024-05-28_13-07-29.553435,"90.02,54.41"
2024-05-28_13-07-29.586167,"100.02,54.64"
2024-05-28_13-07-29.618935,"78.70,58.81"
2024-05-28_13-07-29.651774,"62.63,58.24"
2024-05-28_13-07-29.684422,"78.76,76.80"
2024-05-28_13-07-29.717149,"66.57,83.44"
2024-05-28_13-07-29.746095,"89.30,83.87"
2024-05-28_13-07-29.779099,"76.12,92.65"
2024-05-28_13-07-29.812165,"69.14,84.14"
2024-05-28_13-07-29.846540,"89.00,60.50"
2024-05-28_13-07-29.878286,"90.92,60.23"
2024-05-28_13-07-29.910293,"89.02,48.46"
2024-05-28_13-07-29.942635,"83.76,59.33"
2024-05-28_13-07-29.971404,"63.90,57.23"
2024-05-28_13-07-30.004220,"80.63,101.15"
2024-05-28_13-07-30.037011,"73.23,87.00"
2024-05-28_13-07-30.069759,"86.62,77.97"
2024-05-28_13-07-30.102501,"82.08,93.14"
2024-05-28_13-07-30.135134,"85.15,81.38"
2024-05-28_13-07-30.167853,"89.48,82.84"
2024-05-28_13-07-30.196723,"81.75,76.10"
2024-05-28_13-07-30.229429,"99.52,70.07"
2024-05-28_13-07-30.262232,"92.15,53.90"
2024-05-28_13-07-30.295037,"62.95,56.17"
2024-05-28_13-07-30.327812,"66.69,54.97"
2024-05-28_13-07-30.360511,"72.01,101.89"
2024-05-28_13-07-30.393239,"82.10,80.98"
2024-05-28_13-07-30.422030,"91.23,82.85"
2024-05-28_13-07-30.454800,"88.11,82.20"
2024-05-28_13-07-30.487564,"99.59,84.49"
2024-05-28_13-07-30.520370,"104.15,89.11"
2024-05-28_13-07-30.553210,"94.86,55.66"
2024-05-28_13-07-30.585876,"101.50,53.88"
2024-05-28_13-07-30.618598,"64.08,58.54"
2024-05-28_13-07-30.647381,"76.80,52.27"
2024-05-28_13-07-30.680151,"65.70,67.97"
2024-05-28_13-07-30.712958,"80.99,80.30"
2024-05-28_13-07-30.745719,"78.77,84.47"
2024-05-28_13-07-30.778485,"96.93,86.10"
2024-05-28_13-07-30.811208,"88.34,81.65"
2024-05-28_13-07-30.843973,"102.37,89.23"
2024-05-28_13-07-30.872729,"104.45,53.41"
2024-05-28_13-07-30.905507,"96.59,53.09"
2024-05-28_13-07-30.938287,"70.71,60.02"
2024-05-28_13-07-30.971080,"76.01,58.30"
2024-05-28_13-07-31.003840,"69.56,75.20"
2024-05-28_13-07-31.036588,"69.99,81.13"
2024-05-28_13-07-31.069353,"92.07,82.62"
2024-05-28_13-07-31.098062,"100.90,87.75"
2024-05-28_13-07-31.130857,"89.28,81.94"
2024-05-28_13-07-31.163644,"89.13,81.55"
2024-05-28_13-07-31.196504,"105.33,83.11"
2024-05-28_13-07-31.229210,"93.57,47.01"
2024-05-28_13-07-31.261970,"86.97,58.47"
2024-05-28_13-07-31.294691,"57.15,57.56"
2024-05-28_13-07-31.323431,"78.80,53.63"
2024-05-28_13-07-31.356317,"77.94,70.52"
2024-05-28_13-07-31.389668,"80.65,84.43"
2024-05-28_13-07-31.421846,"88.16,100.59"
2024-05-28_13-07-31.454559,"89.11,84.56"
2024-05-28_13-07-31.487509,"101.70,78.66"
2024-05-28_13-07-31.521517,"80.64,65.90"
2024-05-28_13-07-31.548969,"94.29,55.26"
2024-05-28_13-07-31.581682,"78.34,56.99"
2024-05-28_13-07-31.614368,"62.77,56.14"
2024-05-28_13-07-31.647141,"81.21,55.46"
2024-05-28_13-07-31.679895,"70.57,97.94"
2024-05-28_13-07-31.712692,"80.75,81.57"
2024-05-28_13-07-31.745377,"91.21,83.05"
2024-05-28_13-07-31.774118,"88.77,82.21"
2024-05-28_13-07-31.806934,"101.04,84.46"
2024-05-28_13-07-31.839720,"96.55,77.94"
2024-05-28_13-07-31.872627,"95.84,55.79"
2024-05-28_13-07-31.905332,"97.44,53.51"
2024-05-28_13-07-31.938063,"65.87,59.58"
2024-05-28_13-07-31.970777,"78.39,48.76"
2024-05-28_13-07-31.999473,"65.85,70.28"
2024-05-28_13-07-32.032400,"84.06,82.98"
2024-05-28_13-07-32.065122,"68.29,89.70"
2024-05-28_13-07-32.097857,"92.56,88.42"
2024-05-28_13-07-32.131296,"94.06,87.39"
2024-05-28_13-07-32.163431,"94.94,68.97"
2024-05-28_13-07-32.196136,"91.06,53.72"
2024-05-28_13-07-32.224849,"85.56,57.83"
2024-05-28_13-07-32.257701,"65.35,62.19"
2024-05-28_13-07-32.290775,"74.44,60.26"
2024-05-28_13-07-32.323271,"65.79,76.15"
2024-05-28_13-07-32.356047,"76.60,84.33"
2024-05-28_13-07-32.388807,"93.48,83.73"
2024-05-28_13-07-32.421439,"96.00,92.66"
2024-05-28_13-07-32.454156,"89.94,79.06"
2024-05-28_13-07-32.483015,"99.07,80.90"
2024-05-28_13-07-32.515780,"103.45,58.00"
2024-05-28_13-07-32.548521,"95.71,48.45"
2024-05-28_13-07-32.581316,"76.05,60.65"
2024-05-28_13-07-32.614075,"70.12,58.80"
2024-05-28_13-07-32.646786,"66.42,86.15"
2024-05-28_13-07-32.679539,"87.82,86.07"
2024-05-28_13-07-32.708321,"69.23,78.29"
2024-05-28_13-07-32.741157,"101.00,98.45"
2024-05-28_13-07-32.773930,"90.73,77.99"
2024-05-28_13-07-32.830691,"98.94,88.61"
2024-05-28_13-07-32.839454,"82.34,62.99"
2024-05-28_13-07-32.872311,"72.94,56.93"
2024-05-28_13-07-32.904897,"85.56,56.27"
2024-05-28_13-07-32.933677,"78.90,57.37"
2024-05-28_13-07-32.966425,"71.10,89.33"
2024-05-28_13-07-32.999212,"70.46,99.54"
2024-05-28_13-07-33.031973,"84.25,86.19"
2024-05-28_13-07-33.064740,"89.85,81.91"
2024-05-28_13-07-33.097507,"95.49,78.98"
2024-05-28_13-07-33.130219,"103.80,78.54"
2024-05-28_13-07-33.159004,"100.26,59.35"
2024-05-28_13-07-33.191764,"91.41,55.74"
2024-05-28_13-07-33.224694,"76.37,58.62"
2024-05-28_13-07-33.257677,"77.52,60.80"
2024-05-28_13-07-33.290136,"81.65,50.77"
2024-05-28_13-07-33.322900,"65.77,82.56"
2024-05-28_13-07-33.355612,"78.88,85.10"
2024-05-28_13-07-33.384410,"80.53,93.37"
2024-05-28_13-07-33.417290,"81.80,88.94"
2024-05-28_13-07-33.450002,"97.23,58.15"
2024-05-28_13-07-33.483179,"99.92,54.72"
2024-05-28_13-07-33.515494,"92.24,53.27"
2024-05-28_13-07-33.548268,"76.84,55.99"
2024-05-28_13-07-33.580911,"63.85,61.82"
2024-05-28_13-07-33.609701,"78.52,81.45"
2024-05-28_13-07-33.642481,"74.29,92.53"
2024-05-28_13-07-33.675442,"84.27,84.62"
2024-05-28_13-07-33.708174,"73.92,99.79"
2024-05-28_13-07-33.740852,"90.16,83.99"
2024-05-28_13-07-33.773685,"87.74,59.19"
2024-05-28_13-07-33.806261,"72.76,57.81"
2024-05-28_13-07-33.835103,"93.27,59.31"
2024-05-28_13-07-33.867928,"76.13,50.68"
2024-05-28_13-07-33.900650,"72.73,59.94"
2024-05-28_13-07-33.933401,"74.74,86.96"
2024-05-28_13-07-33.966242,"70.90,72.67"
2024-05-28_13-07-33.998894,"91.02,83.98"
2024-05-28_13-07-34.031591,"85.32,84.04"
2024-05-28_13-07-34.060435,"102.73,86.03"
2024-05-28_13-07-34.093214,"100.14,77.83"
2024-05-28_13-07-34.125966,"106.74,68.68"
2024-05-28_13-07-34.158746,"103.36,56.90"
2024-05-28_13-07-34.193745,"68.44,56.59"
2024-05-28_13-07-34.224221,"65.98,54.62"
2024-05-28_13-07-34.256989,"80.40,58.19"
2024-05-28_13-07-34.285718,"81.94,73.40"
2024-05-28_13-07-34.318521,"86.62,90.22"
2024-05-28_13-07-34.351348,"83.06,87.45"
2024-05-28_13-07-34.384097,"92.51,81.47"
2024-05-28_13-07-34.416869,"90.33,80.51"
2024-05-28_13-07-34.449625,"93.78,65.51"
2024-05-28_13-07-34.482320,"102.91,57.38"
2024-05-28_13-07-34.511112,"68.07,56.16"
2024-05-28_13-07-34.544272,"70.34,54.94"
2024-05-28_13-07-34.576734,"83.37,62.92"
2024-05-28_13-07-34.609406,"71.42,83.38"
2024-05-28_13-07-34.642196,"86.79,90.85"
2024-05-28_13-07-34.674948,"88.25,78.53"
2024-05-28_13-07-34.707672,"94.03,81.96"
2024-05-28_13-07-34.736439,"100.40,74.84"
2024-05-28_13-07-34.769203,"89.37,79.21"
2024-05-28_13-07-34.801995,"94.49,69.35"
2024-05-28_13-07-34.834871,"81.71,52.62"
2024-05-28_13-07-34.867589,"66.64,54.85"
2024-05-28_13-07-34.900400,"69.86,74.23"
2024-05-28_13-07-34.933001,"69.51,90.61"
2024-05-28_13-07-34.961817,"87.36,83.24"
2024-05-28_13-07-34.994697,"87.22,78.80"
2024-05-28_13-07-35.027379,"89.18,87.04"
2024-05-28_13-07-35.060150,"106.51,83.36"
2024-05-28_13-07-35.092956,"86.80,81.77"
2024-05-28_13-07-35.125690,"93.74,54.19"
2024-05-28_13-07-35.158398,"80.74,56.86"
2024-05-28_13-07-35.187233,"67.68,50.02"
2024-05-28_13-07-35.220224,"72.64,72.27"
2024-05-28_13-07-35.252769,"71.92,71.94"
2024-05-28_13-07-35.285464,"83.56,87.49"
2024-05-28_13-07-35.318257,"98.42,83.63"
2024-05-28_13-07-35.351008,"89.53,89.68"
2024-05-28_13-07-35.383728,"105.63,83.00"
2024-05-28_13-07-35.412463,"85.93,74.72"
2024-05-28_13-07-35.445263,"88.04,68.49"
2024-05-28_13-07-35.478116,"101.26,57.11"
2024-05-28_13-07-35.510789,"64.07,56.61"
2024-05-28_13-07-35.543572,"79.54,55.48"
2024-05-28_13-07-35.576359,"73.54,82.05"
2024-05-28_13-07-35.609055,"86.99,87.35"
2024-05-28_13-07-35.637836,"91.40,89.15"
2024-05-28_13-07-35.670603,"87.18,80.55"
2024-05-28_13-07-35.703855,"102.58,77.52"
2024-05-28_13-07-35.736183,"95.81,75.14"
2024-05-28_13-07-35.768990,"108.49,65.08"
2024-05-28_13-07-35.801718,"100.59,57.37"
2024-05-28_13-07-35.834398,"57.36,57.61"
2024-05-28_13-07-35.863207,"66.53,55.56"
2024-05-28_13-07-35.895983,"76.68,90.25"
2024-05-28_13-07-35.928753,"82.01,80.21"
2024-05-28_13-07-35.961551,"87.21,91.01"
2024-05-28_13-07-35.994311,"87.88,80.58"
2024-05-28_13-07-36.027066,"99.85,77.81"
2024-05-28_13-07-36.059767,"82.13,73.22"
2024-05-28_13-07-36.092523,"80.29,69.77"
2024-05-28_13-07-36.121271,"95.34,52.60"
2024-05-28_13-07-36.154059,"64.19,54.96"
2024-05-28_13-07-36.186820,"66.86,54.11"
2024-05-28_13-07-36.219620,"72.89,104.62"
2024-05-28_13-07-36.252462,"82.46,79.78"
2024-05-28_13-07-36.285146,"73.76,83.97"
2024-05-28_13-07-36.317828,"86.75,80.59"
2024-05-28_13-07-36.346661,"98.80,83.14"
2024-05-28_13-07-36.379400,"82.41,87.11"
2024-05-28_13-07-36.412195,"84.96,71.48"
2024-05-28_13-07-36.444990,"100.82,53.05"
2024-05-28_13-07-36.477722,"65.09,58.25"
2024-05-28_13-07-36.510451,"76.82,50.67"
2024-05-28_13-07-36.543174,"63.74,69.86"
2024-05-28_13-07-36.571989,"80.49,79.30"
2024-05-28_13-07-36.604767,"78.27,83.19"
2024-05-28_13-07-36.637542,"96.07,84.18"
2024-05-28_13-07-36.670319,"98.72,81.56"
2024-05-28_13-07-36.703145,"93.36,88.26"
2024-05-28_13-07-36.735837,"93.29,69.79"
2024-05-28_13-07-36.768538,"97.77,52.41"
2024-05-28_13-07-36.797283,"71.82,59.59"
2024-05-28_13-07-36.830172,"74.61,58.50"
2024-05-28_13-07-36.862912,"67.69,55.94"
2024-05-28_13-07-36.895625,"71.14,80.26"
2024-05-28_13-07-36.928512,"89.50,82.76"
2024-05-28_13-07-36.961174,"100.46,92.65"
2024-05-28_13-07-36.993862,"94.65,76.28"
2024-05-28_13-07-37.022692,"80.26,83.23"
2024-05-28_13-07-37.055494,"91.47,73.26"
2024-05-28_13-07-37.088222,"95.96,46.46"
2024-05-28_13-07-37.121027,"72.43,59.75"
2024-05-28_13-07-37.153753,"68.88,58.94"
2024-05-28_13-07-37.186687,"68.21,57.82"
2024-05-28_13-07-37.219232,"85.74,85.25"
2024-05-28_13-07-37.252255,"67.73,77.80"
2024-05-28_13-07-37.280834,"96.86,92.66"
2024-05-28_13-07-37.313569,"92.99,77.78"
2024-05-28_13-07-37.346407,"88.89,78.00"
2024-05-28_13-07-37.379318,"111.08,57.63"
2024-05-28_13-07-37.413000,"81.70,54.92"
2024-05-28_13-07-37.444572,"72.97,54.82"
2024-05-28_13-07-37.473327,"69.20,58.66"
2024-05-28_13-07-37.506197,"74.88,88.40"
2024-05-28_13-07-37.538930,"85.03,90.44"
2024-05-28_13-07-37.571799,"87.50,91.56"
2024-05-28_13-07-37.604474,"95.48,82.30"
2024-05-28_13-07-37.637214,"92.58,78.23"
2024-05-28_13-07-37.669936,"77.46,74.53"
2024-05-28_13-07-37.698704,"114.57,57.11"
2024-05-28_13-07-37.731491,"71.16,55.71"
2024-05-28_13-07-37.764247,"68.03,55.21"
2024-05-28_13-07-37.797063,"82.15,71.78"
2024-05-28_13-07-37.829846,"73.72,79.77"
2024-05-28_13-07-37.862579,"87.63,90.86"
2024-05-28_13-07-37.895288,"88.56,88.43"
2024-05-28_13-07-37.924045,"96.33,81.19"
2024-05-28_13-07-37.956878,"95.01,78.93"
2024-05-28_13-07-37.989643,"85.56,81.81"
2024-05-28_13-07-38.022374,"108.93,53.05"
2024-05-28_13-07-38.055158,"78.20,53.39"
2024-05-28_13-07-38.087903,"65.05,55.45"
2024-05-28_13-07-38.120612,"81.45,75.26"
2024-05-28_13-07-38.149365,"73.01,90.52"
2024-05-28_13-07-38.182235,"85.73,83.68"
2024-05-28_13-07-38.215002,"85.73,87.19"
2024-05-28_13-07-38.247707,"94.53,84.64"
2024-05-28_13-07-38.280520,"100.60,83.92"
2024-05-28_13-07-38.313243,"78.55,70.59"
2024-05-28_13-07-38.345982,"111.19,52.99"
2024-05-28_13-07-38.374723,"74.94,57.40"
2024-05-28_13-07-38.407514,"78.14,51.74"
2024-05-28_13-07-38.440315,"69.75,80.62"
2024-05-28_13-07-38.473082,"70.93,81.23"
2024-05-28_13-07-38.505913,"86.24,85.26"
2024-05-28_13-07-38.538624,"93.63,87.48"
2024-05-28_13-07-38.571330,"97.42,80.75"
2024-05-28_13-07-38.600153,"93.85,88.37"
2024-05-28_13-07-38.632859,"95.63,53.33"
2024-05-28_13-07-38.665641,"83.17,54.84"
2024-05-28_13-07-38.698431,"76.73,59.15"
2024-05-28_13-07-38.731238,"73.74,59.29"
2024-05-28_13-07-38.763958,"67.61,56.07"
2024-05-28_13-07-38.796694,"81.12,78.83"
2024-05-28_13-07-38.829388,"81.12,82.04"
2024-05-28_13-07-38.858236,"101.99,92.46"
2024-05-28_13-07-38.890958,"85.78,76.46"
2024-05-28_13-07-38.923777,"94.09,87.79"
2024-05-28_13-07-38.956536,"103.17,57.76"
2024-05-28_13-07-38.989286,"95.38,46.48"
2024-05-28_13-07-39.022031,"71.74,59.91"
2024-05-28_13-07-39.054719,"68.53,59.56"
2024-05-28_13-07-39.083777,"67.14,70.42"
2024-05-28_13-07-39.116363,"81.73,87.53"
2024-05-28_13-07-39.149069,"77.06,88.79"
2024-05-28_13-07-39.181878,"101.59,90.52"
2024-05-28_13-07-39.214648,"83.88,74.36"
2024-05-28_13-07-39.247347,"92.58,80.03"
2024-05-28_13-07-39.280195,"108.47,57.24"
2024-05-28_13-07-39.308909,"75.27,56.58"
2024-05-28_13-07-39.341663,"70.15,53.72"
2024-05-28_13-07-39.374485,"79.57,58.12"
2024-05-28_13-07-39.407222,"85.28,72.58"
2024-05-28_13-07-39.439985,"76.34,89.22"
2024-05-28_13-07-39.472733,"85.86,87.92"
2024-05-28_13-07-39.505449,"105.63,78.73"
2024-05-28_13-07-39.534212,"99.81,72.10"
2024-05-28_13-07-39.567007,"106.55,47.42"
2024-05-28_13-07-39.599778,"97.02,58.29"
2024-05-28_13-07-39.632538,"59.39,57.78"
2024-05-28_13-07-39.665335,"76.42,59.14"
2024-05-28_13-07-39.698051,"79.22,90.10"
2024-05-28_13-07-39.730782,"74.31,82.42"
2024-05-28_13-07-39.759546,"93.99,87.51"
2024-05-28_13-07-39.792343,"90.32,75.48"
2024-05-28_13-07-39.825167,"93.67,81.13"
2024-05-28_13-07-39.857952,"111.60,70.40"
2024-05-28_13-07-39.890866,"104.78,54.10"
2024-05-28_13-07-39.923427,"93.13,54.13"
2024-05-28_13-07-39.956155,"65.00,54.50"
2024-05-28_13-07-39.984900,"81.18,54.31"
2024-05-28_13-07-40.017647,"70.06,95.55"
2024-05-28_13-07-40.050440,"82.92,80.63"
2024-05-28_13-07-40.083202,"88.18,81.26"
2024-05-28_13-07-40.116042,"88.40,84.94"
2024-05-28_13-07-40.148780,"107.42,88.89"
2024-05-28_13-07-40.181481,"113.39,82.67"
2024-05-28_13-07-40.210213,"93.91,54.56"
2024-05-28_13-07-40.243007,"88.03,53.49"
2024-05-28_13-07-40.275782,"61.13,58.96"
2024-05-28_13-07-40.308528,"86.32,49.59"
2024-05-28_13-07-40.341342,"62.37,81.49"
2024-05-28_13-07-40.374092,"86.72,79.32"
2024-05-28_13-07-40.406820,"91.01,80.26"
2024-05-28_13-07-40.435552,"99.98,84.80"
2024-05-28_13-07-40.470624,"88.20,90.91"
2024-05-28_13-07-40.501223,"91.15,69.37"
2024-05-28_13-07-40.533946,"89.57,52.67"
2024-05-28_13-07-40.566779,"78.44,54.21"
2024-05-28_13-07-40.599411,"59.78,61.11"
2024-05-28_13-07-40.632176,"83.66,58.60"
2024-05-28_13-07-40.660909,"71.93,76.11"
2024-05-28_13-07-40.693757,"73.93,79.61"
2024-05-28_13-07-40.726442,"92.57,78.84"
2024-05-28_13-07-40.759279,"106.65,88.43"
2024-05-28_13-07-40.792014,"87.98,77.45"
2024-05-28_13-07-40.824768,"98.50,69.17"
2024-05-28_13-07-40.858114,"99.96,56.88"
2024-05-28_13-07-40.886255,"74.16,48.34"
2024-05-28_13-07-40.919046,"66.49,60.21"
2024-05-28_13-07-40.951835,"75.86,77.15"
2024-05-28_13-07-40.984576,"74.59,75.26"
2024-05-28_13-07-41.017382,"81.94,84.48"
2024-05-28_13-07-41.050103,"85.10,82.33"
2024-05-28_13-07-41.082832,"106.07,84.67"
2024-05-28_13-07-41.111574,"95.26,72.04"
2024-05-28_13-07-41.144365,"90.36,68.59"
2024-05-28_13-07-41.177157,"100.54,56.89"
2024-05-28_13-07-41.209911,"65.45,56.14"
2024-05-28_13-07-41.242719,"65.67,54.09"
2024-05-28_13-07-41.275463,"74.67,83.33"
2024-05-28_13-07-41.308181,"85.43,87.06"
2024-05-28_13-07-41.336919,"90.43,88.15"
2024-05-28_13-07-41.369699,"86.01,89.04"
2024-05-28_13-07-41.402471,"102.51,76.78"
2024-05-28_13-07-41.435216,"97.19,78.13"
2024-05-28_13-07-41.468005,"97.34,64.58"
2024-05-28_13-07-41.500797,"99.55,57.15"
2024-05-28_13-07-41.533496,"56.05,57.81"
2024-05-28_13-07-41.562259,"66.99,54.00"
2024-05-28_13-07-41.595014,"76.89,89.43"
2024-05-28_13-07-41.627800,"84.35,79.15"
2024-05-28_13-07-41.660609,"91.80,90.29"
2024-05-28_13-07-41.693366,"90.06,83.98"
2024-05-28_13-07-41.726141,"92.95,78.85"
2024-05-28_13-07-41.758840,"99.14,79.19"
2024-05-28_13-07-41.791581,"102.22,70.14"
2024-05-28_13-07-41.820460,"88.67,53.50"
2024-05-28_13-07-41.853205,"61.75,55.37"
2024-05-28_13-07-41.886009,"79.43,52.47"
2024-05-28_13-07-41.918721,"73.81,88.42"
2024-05-28_13-07-41.951528,"72.50,81.55"
2024-05-28_13-07-41.984196,"91.21,78.42"
2024-05-28_13-07-42.016908,"91.85,79.49"
2024-05-28_13-07-42.045722,"90.70,78.25"
2024-05-28_13-07-42.078483,"95.52,70.13"
2024-05-28_13-07-42.111302,"87.46,54.93"
2024-05-28_13-07-42.144049,"76.72,54.25"
2024-05-28_13-07-42.176843,"58.83,59.50"
2024-05-28_13-07-42.209510,"79.84,76.54"
2024-05-28_13-07-42.242339,"74.69,92.81"
2024-05-28_13-07-42.271046,"86.35,79.28"
2024-05-28_13-07-42.303842,"92.42,88.99"
2024-05-28_13-07-42.336621,"107.13,75.83"
2024-05-28_13-07-42.369393,"88.68,89.44"
2024-05-28_13-07-42.402149,"106.76,52.68"
2024-05-28_13-07-42.434869,"91.69,52.45"
2024-05-28_13-07-42.467579,"66.76,54.41"
2024-05-28_13-07-42.496406,"70.72,61.10"
2024-05-28_13-07-42.529186,"74.70,62.93"
2024-05-28_13-07-42.561937,"83.96,84.91"
2024-05-28_13-07-42.594724,"72.07,78.63"
2024-05-28_13-07-42.627484,"92.69,86.50"
2024-05-28_13-07-42.660240,"106.87,83.30"
2024-05-28_13-07-42.692935,"74.52,68.97"
2024-05-28_13-07-42.721940,"104.63,52.34"
2024-05-28_13-07-42.754547,"82.82,57.08"
2024-05-28_13-07-42.787327,"80.93,48.26"
2024-05-28_13-07-42.820119,"70.89,65.87"
2024-05-28_13-07-42.852831,"69.62,81.48"
2024-05-28_13-07-42.885561,"86.83,84.47"
2024-05-28_13-07-42.918260,"92.70,84.73"
2024-05-28_13-07-42.947070,"88.40,81.59"
2024-05-28_13-07-42.979860,"92.59,87.65"
2024-05-28_13-07-43.012626,"94.05,69.84"
2024-05-28_13-07-43.045421,"97.35,52.60"
2024-05-28_13-07-43.078197,"71.37,59.96"
2024-05-28_13-07-43.110932,"74.92,58.27"
2024-05-28_13-07-43.143599,"67.74,55.60"
2024-05-28_13-07-43.172435,"79.55,79.19"
2024-05-28_13-07-43.205196,"78.76,83.23"
2024-05-28_13-07-43.237940,"100.30,98.11"
2024-05-28_13-07-43.270780,"84.62,78.09"
2024-05-28_13-07-43.303539,"107.45,79.26"
2024-05-28_13-07-43.336251,"98.54,57.33"
2024-05-28_13-07-43.368952,"89.65,46.89"
2024-05-28_13-07-43.397778,"69.66,60.56"
2024-05-28_13-07-43.430532,"82.14,58.33"
2024-05-28_13-07-43.463275,"65.20,76.91"
2024-05-28_13-07-43.496069,"91.88,84.27"
2024-05-28_13-07-43.528847,"85.64,82.61"
2024-05-28_13-07-43.561606,"102.05,84.14"
2024-05-28_13-07-43.594301,"94.46,72.18"
2024-05-28_13-07-43.623085,"91.49,68.43"
2024-05-28_13-07-43.655840,"99.77,56.90"
2024-05-28_13-07-43.688661,"65.66,57.32"
2024-05-28_13-07-43.721410,"65.88,55.39"
2024-05-28_13-07-43.754148,"75.80,87.94"
2024-05-28_13-07-43.786897,"85.75,88.87"
2024-05-28_13-07-43.819637,"88.50,88.93"
2024-05-28_13-07-43.848457,"86.33,87.18"
2024-05-28_13-07-43.881438,"104.51,78.96"
2024-05-28_13-07-43.913970,"102.74,83.52"
2024-05-28_13-07-43.946789,"104.77,47.31"
2024-05-28_13-07-43.979515,"88.86,58.08"
2024-05-28_13-07-44.012328,"55.21,58.16"
2024-05-28_13-07-44.044982,"79.69,52.15"
2024-05-28_13-07-44.073812,"76.34,83.35"
2024-05-28_13-07-44.106541,"76.80,78.95"
2024-05-28_13-07-44.139381,"89.37,88.88"
2024-05-28_13-07-44.172106,"94.89,78.14"
