timestamp,EMG
2024-05-28_13-14-06.403465,"81.03,73.59"
2024-05-28_13-14-06.436152,"82.13,77.50"
2024-05-28_13-14-06.464906,"93.13,71.93"
2024-05-28_13-14-06.497658,"90.27,55.45"
2024-05-28_13-14-06.530445,"75.58,54.01"
2024-05-28_13-14-06.563219,"84.60,87.17"
2024-05-28_13-14-06.596014,"94.47,85.51"
2024-05-28_13-14-06.628681,"81.15,72.12"
2024-05-28_13-14-06.661425,"85.70,76.60"
2024-05-28_13-14-06.690139,"77.35,78.53"
2024-05-28_13-14-06.722957,"85.51,71.26"
2024-05-28_13-14-06.755701,"84.05,81.49"
2024-05-28_13-14-06.788475,"88.26,81.93"
2024-05-28_13-14-06.821241,"85.68,67.90"
2024-05-28_13-14-06.854018,"77.50,68.47"
2024-05-28_13-14-06.886670,"89.05,72.47"
2024-05-28_13-14-06.915425,"58.10,79.21"
2024-05-28_13-14-06.948366,"91.63,86.66"
2024-05-28_13-14-06.983280,"95.47,74.23"
2024-05-28_13-14-07.013804,"64.09,86.54"
2024-05-28_13-14-07.046573,"75.93,102.79"
2024-05-28_13-14-07.079443,"74.19,72.52"
2024-05-28_13-14-07.118230,"87.93,79.91"
2024-05-28_13-14-07.143480,"89.35,79.89"
2024-05-28_13-14-07.174994,"95.12,66.31"
2024-05-28_13-14-07.206803,"100.99,82.13"
2024-05-28_13-14-07.239223,"75.80,68.07"
2024-05-28_13-14-07.273754,"81.67,69.36"
2024-05-28_13-14-07.305761,"97.44,85.43"
2024-05-28_13-14-07.337560,"82.73,64.70"
2024-05-28_13-14-07.365964,"92.57,72.74"
2024-05-28_13-14-07.398720,"84.70,96.94"
2024-05-28_13-14-07.431565,"60.89,77.39"
2024-05-28_13-14-07.464307,"92.23,71.90"
2024-05-28_13-14-07.497036,"92.48,71.04"
2024-05-28_13-14-07.529756,"86.74,80.72"
2024-05-28_13-14-07.562463,"83.89,67.99"
2024-05-28_13-14-07.595163,"82.70,81.86"
2024-05-28_13-14-07.623991,"104.41,55.49"
2024-05-28_13-14-07.656740,"63.88,57.44"
2024-05-28_13-14-07.689513,"91.76,86.46"
2024-05-28_13-14-07.722345,"83.87,76.37"
2024-05-28_13-14-07.755158,"73.08,83.09"
2024-05-28_13-14-07.787761,"100.70,92.91"
2024-05-28_13-14-07.820431,"70.22,72.15"
2024-05-28_13-14-07.849249,"87.11,78.89"
2024-05-28_13-14-07.882014,"77.50,71.33"
2024-05-28_13-14-07.914758,"82.64,76.77"
2024-05-28_13-14-07.947527,"94.26,83.96"
2024-05-28_13-14-07.980348,"83.39,70.76"
2024-05-28_13-14-08.012988,"96.03,53.98"
2024-05-28_13-14-08.045652,"68.61,68.19"
2024-05-28_13-14-08.074758,"93.94,81.31"
2024-05-28_13-14-08.107732,"82.25,92.94"
2024-05-28_13-14-08.140074,"78.71,87.33"
2024-05-28_13-14-08.172810,"68.49,83.12"
2024-05-28_13-14-08.205576,"78.80,71.71"
2024-05-28_13-14-08.238329,"89.80,80.91"
2024-05-28_13-14-08.270928,"88.21,80.70"
2024-05-28_13-14-08.299743,"83.82,67.58"
2024-05-28_13-14-08.332508,"81.51,81.42"
2024-05-28_13-14-08.365329,"106.48,56.61"
2024-05-28_13-14-08.398046,"66.84,58.71"
2024-05-28_13-14-08.430861,"75.83,77.89"
2024-05-28_13-14-08.463552,"87.65,82.30"
2024-05-28_13-14-08.496289,"93.21,81.04"
2024-05-28_13-14-08.524978,"90.14,88.18"
2024-05-28_13-14-08.557765,"71.86,72.44"
2024-05-28_13-14-08.590501,"88.33,78.71"
2024-05-28_13-14-08.623324,"75.65,71.56"
2024-05-28_13-14-08.656046,"82.26,77.53"
2024-05-28_13-14-08.688772,"93.39,84.67"
2024-05-28_13-14-08.721461,"81.60,54.36"
2024-05-28_13-14-08.750360,"96.66,51.75"
2024-05-28_13-14-08.783143,"67.76,69.88"
2024-05-28_13-14-08.815854,"94.24,71.66"
2024-05-28_13-14-08.848585,"88.88,94.75"
2024-05-28_13-14-08.881323,"84.44,70.13"
2024-05-28_13-14-08.914062,"81.37,81.60"
2024-05-28_13-14-08.947073,"76.07,72.33"
2024-05-28_13-14-08.988727,"101.95,82.61"
2024-05-28_13-14-09.008368,"105.18,60.38"
2024-05-28_13-14-09.041203,"105.60,60.40"
2024-05-28_13-14-09.073892,"91.34,49.88"
2024-05-28_13-14-09.106794,"108.19,55.39"
2024-05-28_13-14-09.139416,"80.46,73.93"
2024-05-28_13-14-09.174514,"82.72,69.93"
2024-05-28_13-14-09.200897,"87.39,83.13"
2024-05-28_13-14-09.233689,"89.92,67.32"
2024-05-28_13-14-09.267136,"77.20,97.96"
2024-05-28_13-14-09.299433,"48.47,78.31"
2024-05-28_13-14-09.331889,"74.86,75.55"
2024-05-28_13-14-09.364606,"87.29,73.09"
2024-05-28_13-14-09.397275,"81.51,76.54"
2024-05-28_13-14-09.426122,"94.98,84.00"
2024-05-28_13-14-09.458872,"76.57,71.20"
2024-05-28_13-14-09.491622,"107.48,51.96"
2024-05-28_13-14-09.524369,"76.18,53.07"
2024-05-28_13-14-09.557087,"81.19,74.23"
2024-05-28_13-14-09.589844,"93.88,89.14"
2024-05-28_13-14-09.622552,"84.67,68.40"
2024-05-28_13-14-09.651302,"80.81,81.09"
2024-05-28_13-14-09.684085,"82.71,73.00"
2024-05-28_13-14-09.716846,"91.84,82.14"
2024-05-28_13-14-09.749588,"86.15,80.71"
2024-05-28_13-14-09.782364,"84.56,67.94"
2024-05-28_13-14-09.815114,"82.38,81.69"
2024-05-28_13-14-09.848069,"104.04,72.24"
2024-05-28_13-14-09.876641,"88.25,55.59"
2024-05-28_13-14-09.909411,"66.87,77.15"
2024-05-28_13-14-09.942131,"94.75,76.22"
2024-05-28_13-14-09.974860,"102.55,80.73"
2024-05-28_13-14-10.007617,"78.41,90.35"
2024-05-28_13-14-10.040566,"75.06,75.85"
2024-05-28_13-14-10.073100,"80.72,79.10"
2024-05-28_13-14-10.101936,"78.70,71.99"
2024-05-28_13-14-10.134636,"80.94,76.72"
2024-05-28_13-14-10.167421,"100.30,63.02"
2024-05-28_13-14-10.200142,"84.18,63.43"
2024-05-28_13-14-10.232926,"100.35,53.33"
2024-05-28_13-14-10.265726,"77.43,53.07"
2024-05-28_13-14-10.298346,"85.93,71.87"
2024-05-28_13-14-10.327077,"92.54,88.42"
2024-05-28_13-14-10.359896,"94.07,72.60"
2024-05-28_13-14-10.392617,"79.42,82.38"
2024-05-28_13-14-10.425372,"83.11,72.66"
2024-05-28_13-14-10.458202,"89.79,82.08"
2024-05-28_13-14-10.490900,"84.95,80.54"
2024-05-28_13-14-10.523655,"84.42,68.42"
2024-05-28_13-14-10.556351,"83.16,67.98"
2024-05-28_13-14-10.585104,"81.94,55.62"
2024-05-28_13-14-10.617894,"93.42,54.77"
2024-05-28_13-14-10.650635,"68.21,96.79"
2024-05-28_13-14-10.683391,"86.11,78.08"
2024-05-28_13-14-10.716368,"101.85,93.00"
2024-05-28_13-14-10.748871,"91.29,87.93"
2024-05-28_13-14-10.781571,"85.29,77.22"
2024-05-28_13-14-10.810348,"82.65,77.63"
2024-05-28_13-14-10.843139,"86.41,72.10"
2024-05-28_13-14-10.875912,"78.11,77.06"
2024-05-28_13-14-10.908678,"93.98,84.43"
2024-05-28_13-14-10.941450,"77.24,70.16"
2024-05-28_13-14-10.974202,"105.87,68.57"
2024-05-28_13-14-11.006837,"86.09,61.34"
2024-05-28_13-14-11.035607,"66.88,62.56"
2024-05-28_13-14-11.068387,"92.21,90.71"
2024-05-28_13-14-11.101300,"95.93,84.65"
2024-05-28_13-14-11.133948,"92.66,86.16"
2024-05-28_13-14-11.166675,"85.90,76.24"
2024-05-28_13-14-11.199414,"89.09,82.35"
2024-05-28_13-14-11.232161,"90.66,79.38"
2024-05-28_13-14-11.260926,"84.82,67.82"
2024-05-28_13-14-11.293656,"81.39,81.45"
2024-05-28_13-14-11.326403,"85.39,72.43"
2024-05-28_13-14-11.359267,"104.24,70.07"
2024-05-28_13-14-11.391946,"82.56,75.63"
2024-05-28_13-14-11.424680,"55.74,80.41"
2024-05-28_13-14-11.457391,"99.68,94.34"
2024-05-28_13-14-11.486211,"95.72,71.97"
2024-05-28_13-14-11.518905,"77.68,79.21"
2024-05-28_13-14-11.551727,"77.41,78.23"
2024-05-28_13-14-11.584443,"82.50,73.16"
2024-05-28_13-14-11.617217,"78.50,77.14"
2024-05-28_13-14-11.649943,"92.91,83.67"
2024-05-28_13-14-11.682640,"75.87,70.32"
2024-05-28_13-14-11.711415,"88.43,68.38"
2024-05-28_13-14-11.744215,"94.63,61.97"
2024-05-28_13-14-11.777047,"65.15,80.69"
2024-05-28_13-14-11.809798,"94.09,93.11"
2024-05-28_13-14-11.842516,"93.45,80.80"
2024-05-28_13-14-11.875204,"79.12,76.04"
2024-05-28_13-14-11.907894,"85.41,75.86"
2024-05-28_13-14-11.936674,"83.57,81.69"
2024-05-28_13-14-11.969468,"86.64,78.74"
2024-05-28_13-14-12.002226,"79.86,68.74"
2024-05-28_13-14-12.034956,"83.56,80.35"
2024-05-28_13-14-12.067737,"85.04,71.53"
2024-05-28_13-14-12.100462,"93.47,69.72"
2024-05-28_13-14-12.133170,"96.74,54.47"
2024-05-28_13-14-12.161906,"57.63,56.76"
2024-05-28_13-14-12.194679,"91.54,84.99"
2024-05-28_13-14-12.227467,"98.25,89.52"
2024-05-28_13-14-12.260217,"95.52,68.99"
2024-05-28_13-14-12.292959,"85.22,78.48"
2024-05-28_13-14-12.325721,"74.84,72.52"
2024-05-28_13-14-12.358426,"94.94,76.83"
2024-05-28_13-14-12.387187,"85.76,82.43"
2024-05-28_13-14-12.420042,"75.44,69.33"
2024-05-28_13-14-12.452766,"93.11,67.11"
2024-05-28_13-14-12.485524,"93.03,56.40"
2024-05-28_13-14-12.518266,"96.63,45.89"
2024-05-28_13-14-12.550980,"70.77,74.17"
2024-05-28_13-14-12.583692,"71.95,78.86"
2024-05-28_13-14-12.612474,"86.79,79.08"
2024-05-28_13-14-12.645223,"80.11,92.83"
2024-05-28_13-14-12.677990,"83.00,84.79"
2024-05-28_13-14-12.710766,"81.07,77.37"
2024-05-28_13-14-12.743519,"88.81,69.18"
2024-05-28_13-14-12.776254,"81.77,79.70"
2024-05-28_13-14-12.808944,"83.37,70.77"
2024-05-28_13-14-12.837712,"86.96,82.39"
2024-05-28_13-14-12.870476,"96.17,69.42"
2024-05-28_13-14-12.903248,"83.32,52.92"
2024-05-28_13-14-12.936097,"60.62,67.20"
2024-05-28_13-14-12.968807,"91.99,96.00"
2024-05-28_13-14-13.001541,"94.01,65.46"
2024-05-28_13-14-13.034212,"75.72,83.83"
2024-05-28_13-14-13.062965,"80.50,73.90"
2024-05-28_13-14-13.095770,"87.71,75.47"
2024-05-28_13-14-13.128519,"88.33,84.37"
2024-05-28_13-14-13.161281,"75.13,70.56"
2024-05-28_13-14-13.194042,"88.92,80.92"
2024-05-28_13-14-13.226784,"84.00,71.25"
2024-05-28_13-14-13.259491,"102.96,45.64"
2024-05-28_13-14-13.288320,"80.03,57.77"
2024-05-28_13-14-13.321019,"81.77,65.93"
2024-05-28_13-14-13.353900,"94.32,92.51"
2024-05-28_13-14-13.386732,"97.01,73.08"
2024-05-28_13-14-13.419340,"81.93,93.64"
2024-05-28_13-14-13.452077,"83.54,85.99"
2024-05-28_13-14-13.484816,"82.44,70.38"
2024-05-28_13-14-13.516858,"83.19,73.43"
2024-05-28_13-14-13.546523,"82.69,72.38"
2024-05-28_13-14-13.579145,"107.21,61.24"
2024-05-28_13-14-13.611883,"87.45,70.08"
2024-05-28_13-14-13.644841,"104.40,53.21"
2024-05-28_13-14-13.677423,"72.67,71.12"
2024-05-28_13-14-13.709998,"85.07,76.33"
2024-05-28_13-14-13.738755,"92.21,66.58"
2024-05-28_13-14-13.771663,"92.33,85.56"
2024-05-28_13-14-13.804336,"83.70,80.33"
2024-05-28_13-14-13.837182,"55.24,80.74"
2024-05-28_13-14-13.870710,"80.86,87.04"
2024-05-28_13-14-13.902616,"76.64,70.61"
2024-05-28_13-14-13.935373,"100.42,81.58"
2024-05-28_13-14-13.968166,"102.64,74.03"
2024-05-28_13-14-13.996775,"79.34,46.30"
2024-05-28_13-14-14.029622,"100.16,56.14"
2024-05-28_13-14-14.062333,"71.07,55.94"
2024-05-28_13-14-14.095162,"74.95,83.97"
2024-05-28_13-14-14.127957,"81.40,68.45"
2024-05-28_13-14-14.160513,"80.52,85.89"
2024-05-28_13-14-14.189305,"79.51,83.13"
2024-05-28_13-14-14.222120,"82.66,70.47"
2024-05-28_13-14-14.254853,"81.15,68.87"
2024-05-28_13-14-14.287648,"94.14,59.52"
2024-05-28_13-14-14.320358,"85.57,82.35"
2024-05-28_13-14-14.353116,"89.34,81.50"
2024-05-28_13-14-14.385836,"85.75,68.15"
2024-05-28_13-14-14.414583,"85.39,64.50"
2024-05-28_13-14-14.447623,"64.19,80.99"
2024-05-28_13-14-14.480243,"86.44,89.06"
2024-05-28_13-14-14.512835,"87.50,76.51"
2024-05-28_13-14-14.545810,"70.55,64.34"
2024-05-28_13-14-14.578441,"93.20,86.00"
2024-05-28_13-14-14.611045,"79.05,80.44"
2024-05-28_13-14-14.643758,"71.84,75.16"
2024-05-28_13-14-14.672549,"80.39,78.90"
2024-05-28_13-14-14.706766,"74.83,71.60"
2024-05-28_13-14-14.738131,"90.79,64.26"
2024-05-28_13-14-14.770870,"93.10,72.06"
2024-05-28_13-14-14.803660,"84.02,58.32"
2024-05-28_13-14-14.836448,"87.57,77.50"
2024-05-28_13-14-14.865201,"70.52,70.65"
2024-05-28_13-14-14.897894,"75.59,77.21"
2024-05-28_13-14-14.930611,"83.09,68.30"
2024-05-28_13-14-14.963386,"78.74,78.19"
2024-05-28_13-14-14.996282,"72.55,81.15"
2024-05-28_13-14-15.028999,"84.02,77.21"
2024-05-28_13-14-15.061601,"86.27,70.34"
2024-05-28_13-14-15.094265,"74.44,80.90"
2024-05-28_13-14-15.123112,"87.28,68.96"
2024-05-28_13-14-15.156230,"76.44,73.05"
2024-05-28_13-14-15.188659,"84.99,65.06"
2024-05-28_13-14-15.221415,"90.33,80.63"
2024-05-28_13-14-15.254178,"81.11,77.11"
2024-05-28_13-14-15.287056,"88.18,78.65"
2024-05-28_13-14-15.319559,"79.59,79.16"
2024-05-28_13-14-15.348544,"106.85,95.69"
2024-05-28_13-14-15.381139,"66.30,74.31"
2024-05-28_13-14-15.413869,"86.30,80.25"
2024-05-28_13-14-15.446806,"78.92,71.84"
2024-05-28_13-14-15.479557,"87.12,82.95"
2024-05-28_13-14-15.512121,"94.62,68.25"
2024-05-28_13-14-15.544800,"93.77,56.47"
2024-05-28_13-14-15.573605,"90.78,51.97"
2024-05-28_13-14-15.608372,"59.23,55.29"
2024-05-28_13-14-15.639158,"83.63,55.90"
2024-05-28_13-14-15.671969,"74.68,87.74"
2024-05-28_13-14-15.704711,"87.40,75.56"
2024-05-28_13-14-15.737404,"72.42,79.91"
2024-05-28_13-14-15.770131,"87.23,75.02"
2024-05-28_13-14-15.798906,"91.04,74.39"
2024-05-28_13-14-15.831627,"86.37,81.34"
2024-05-28_13-14-15.864411,"83.15,67.23"
2024-05-28_13-14-15.897223,"82.66,67.54"
2024-05-28_13-14-15.929998,"80.23,76.92"
2024-05-28_13-14-15.962663,"81.43,80.41"
2024-05-28_13-14-15.995362,"66.13,85.17"
2024-05-28_13-14-16.024716,"74.06,76.74"
2024-05-28_13-14-16.057131,"96.08,69.63"
2024-05-28_13-14-16.089751,"79.32,96.24"
2024-05-28_13-14-16.122507,"68.46,83.33"
2024-05-28_13-14-16.155249,"80.88,79.66"
2024-05-28_13-14-16.188047,"77.53,71.46"
2024-05-28_13-14-16.220648,"93.33,78.68"
2024-05-28_13-14-16.249549,"102.36,71.12"
2024-05-28_13-14-16.282245,"101.66,58.50"
2024-05-28_13-14-16.315130,"98.92,53.47"
2024-05-28_13-14-16.351910,"69.42,91.95"
2024-05-28_13-14-16.380559,"71.05,53.26"
2024-05-28_13-14-16.413290,"73.05,59.20"
2024-05-28_13-14-16.445888,"90.00,79.06"
2024-05-28_13-14-16.474727,"77.44,83.67"
2024-05-28_13-14-16.507515,"91.51,78.84"
2024-05-28_13-14-16.540255,"74.99,74.02"
2024-05-28_13-14-16.573003,"98.55,83.63"
2024-05-28_13-14-16.605727,"85.16,68.21"
2024-05-28_13-14-16.638567,"87.45,71.28"
2024-05-28_13-14-16.671233,"91.90,80.29"
2024-05-28_13-14-16.699992,"96.01,70.64"
2024-05-28_13-14-16.732705,"74.66,60.07"
2024-05-28_13-14-16.765615,"74.75,65.87"
2024-05-28_13-14-16.798490,"93.59,98.56"
2024-05-28_13-14-16.831082,"83.37,64.06"
2024-05-28_13-14-16.863791,"81.40,100.14"
2024-05-28_13-14-16.896418,"78.10,79.44"
2024-05-28_13-14-16.925628,"82.27,71.80"
2024-05-28_13-14-16.958291,"81.44,68.11"
2024-05-28_13-14-16.990768,"93.94,71.16"
2024-05-28_13-14-17.023483,"75.61,70.05"
2024-05-28_13-14-17.056258,"87.12,68.14"
2024-05-28_13-14-17.089013,"95.59,56.52"
2024-05-28_13-14-17.121707,"69.48,61.23"
2024-05-28_13-14-17.150471,"93.52,93.15"
2024-05-28_13-14-17.183226,"98.49,81.86"
2024-05-28_13-14-17.216004,"71.10,70.86"
2024-05-28_13-14-17.248762,"85.40,75.71"
2024-05-28_13-14-17.281705,"87.81,82.27"
2024-05-28_13-14-17.314385,"87.71,79.22"
2024-05-28_13-14-17.346988,"83.05,56.13"
2024-05-28_13-14-17.379820,"81.12,68.66"
2024-05-28_13-14-17.408547,"84.59,72.58"
2024-05-28_13-14-17.441268,"105.30,53.96"
2024-05-28_13-14-17.474034,"85.84,78.99"
2024-05-28_13-14-17.506814,"57.49,64.85"
2024-05-28_13-14-17.539542,"99.09,86.86"
2024-05-28_13-14-17.572268,"105.15,93.08"
2024-05-28_13-14-17.604928,"74.38,66.90"
2024-05-28_13-14-17.633802,"89.76,76.86"
2024-05-28_13-14-17.666551,"78.77,73.69"
2024-05-28_13-14-17.699340,"85.23,78.32"
2024-05-28_13-14-17.732042,"91.33,83.81"
2024-05-28_13-14-17.764796,"76.87,70.31"
2024-05-28_13-14-17.797496,"91.26,68.86"
2024-05-28_13-14-17.830229,"82.12,55.49"
2024-05-28_13-14-17.858982,"83.25,46.10"
2024-05-28_13-14-17.891747,"71.51,83.40"
2024-05-28_13-14-17.924525,"92.34,73.88"
2024-05-28_13-14-17.957294,"102.10,84.64"
2024-05-28_13-14-17.990125,"79.82,80.41"
2024-05-28_13-14-18.022783,"78.95,82.66"
2024-05-28_13-14-18.055489,"84.94,78.24"
2024-05-28_13-14-18.084269,"76.95,68.87"
2024-05-28_13-14-18.117044,"81.11,80.02"
2024-05-28_13-14-18.149820,"89.16,70.71"
2024-05-28_13-14-18.182560,"94.23,54.16"
2024-05-28_13-14-18.215304,"98.81,53.67"
2024-05-28_13-14-18.248062,"65.16,80.37"
2024-05-28_13-14-18.280737,"72.76,76.16"
2024-05-28_13-14-18.309504,"91.90,83.36"
2024-05-28_13-14-18.342258,"81.14,89.45"
2024-05-28_13-14-18.375057,"81.22,80.58"
2024-05-28_13-14-18.407805,"73.10,72.72"
2024-05-28_13-14-18.440634,"94.53,77.08"
2024-05-28_13-14-18.473318,"84.76,82.94"
2024-05-28_13-14-18.506016,"77.26,69.55"
2024-05-28_13-14-18.534780,"89.77,80.98"
2024-05-28_13-14-18.567558,"92.80,56.11"
2024-05-28_13-14-18.600326,"93.34,46.38"
2024-05-28_13-14-18.633035,"62.02,83.99"
2024-05-28_13-14-18.665842,"83.59,84.32"
2024-05-28_13-14-18.698596,"95.85,79.93"
2024-05-28_13-14-18.731289,"78.84,85.66"
2024-05-28_13-14-18.760081,"84.13,83.63"
2024-05-28_13-14-18.792847,"79.06,78.14"
2024-05-28_13-14-18.825599,"88.90,70.52"
2024-05-28_13-14-18.858347,"81.81,80.15"
2024-05-28_13-14-18.891076,"83.29,70.88"
2024-05-28_13-14-18.923827,"88.02,82.55"
2024-05-28_13-14-18.956584,"103.08,69.64"
2024-05-28_13-14-18.985312,"80.58,53.03"
2024-05-28_13-14-19.018049,"62.09,82.91"
2024-05-28_13-14-19.050825,"93.72,95.12"
2024-05-28_13-14-19.083624,"93.54,66.13"
2024-05-28_13-14-19.116425,"87.67,85.04"
2024-05-28_13-14-19.149143,"89.91,76.21"
2024-05-28_13-14-19.181801,"84.14,77.64"
2024-05-28_13-14-19.210587,"77.82,83.24"
2024-05-28_13-14-19.243326,"74.78,70.06"
2024-05-28_13-14-19.276070,"88.96,80.89"
2024-05-28_13-14-19.308831,"84.91,71.56"
2024-05-28_13-14-19.341619,"95.77,45.57"
2024-05-28_13-14-19.374359,"89.40,86.19"
2024-05-28_13-14-19.407097,"57.03,79.55"
2024-05-28_13-14-19.435791,"97.63,93.21"
2024-05-28_13-14-19.468621,"93.48,87.86"
2024-05-28_13-14-19.501377,"84.04,86.06"
2024-05-28_13-14-19.534111,"76.91,79.25"
2024-05-28_13-14-19.566913,"81.41,70.46"
2024-05-28_13-14-19.599668,"86.47,78.36"
2024-05-28_13-14-19.632357,"80.88,71.10"
2024-05-28_13-14-19.661085,"88.75,82.20"
2024-05-28_13-14-19.693841,"89.10,81.54"
2024-05-28_13-14-19.726613,"105.09,52.59"
2024-05-28_13-14-19.759353,"85.27,80.89"
2024-05-28_13-14-19.792162,"67.58,75.62"
2024-05-28_13-14-19.824918,"94.09,79.92"
2024-05-28_13-14-19.857598,"103.03,85.39"
2024-05-28_13-14-19.890301,"71.91,65.53"
2024-05-28_13-14-19.919146,"89.71,77.29"
2024-05-28_13-14-19.951927,"82.84,84.68"
2024-05-28_13-14-19.984757,"74.31,70.40"
2024-05-28_13-14-20.017409,"84.69,80.26"
2024-05-28_13-14-20.050167,"84.91,72.21"
2024-05-28_13-14-20.082871,"82.55,77.56"
2024-05-28_13-14-20.115556,"104.61,71.55"
2024-05-28_13-14-20.144410,"75.80,55.58"
2024-05-28_13-14-20.177204,"51.75,82.62"
2024-05-28_13-14-20.210046,"87.90,69.95"
2024-05-28_13-14-20.242715,"75.25,85.45"
2024-05-28_13-14-20.275551,"93.31,91.01"
2024-05-28_13-14-20.308399,"88.09,75.57"
2024-05-28_13-14-20.340934,"92.12,84.08"
2024-05-28_13-14-20.369772,"99.97,65.06"
2024-05-28_13-14-20.402473,"91.85,57.12"
2024-05-28_13-14-20.437898,"92.99,69.96"
2024-05-28_13-14-20.468301,"92.74,53.77"
2024-05-28_13-14-20.501245,"82.50,85.20"
2024-05-28_13-14-20.533429,"79.42,93.93"
2024-05-28_13-14-20.566107,"95.77,82.64"
2024-05-28_13-14-20.594926,"85.52,73.40"
2024-05-28_13-14-20.627675,"71.31,63.55"
2024-05-28_13-14-20.660484,"90.58,81.59"
2024-05-28_13-14-20.693219,"89.57,86.63"
2024-05-28_13-14-20.725981,"80.09,71.57"
2024-05-28_13-14-20.758700,"83.41,79.42"
2024-05-28_13-14-20.791413,"68.97,71.30"
2024-05-28_13-14-20.820245,"83.35,77.60"
2024-05-28_13-14-20.852973,"93.70,71.71"
2024-05-28_13-14-20.885700,"94.10,54.97"
2024-05-28_13-14-20.918502,"81.03,75.32"
2024-05-28_13-14-20.951252,"68.86,87.39"
2024-05-28_13-14-20.983951,"94.87,85.96"
2024-05-28_13-14-21.016649,"81.95,70.45"
2024-05-28_13-14-21.045428,"86.93,73.91"
2024-05-28_13-14-21.078207,"76.94,77.77"
2024-05-28_13-14-21.110967,"74.48,71.59"
2024-05-28_13-14-21.143791,"85.05,81.20"
2024-05-28_13-14-21.176531,"97.00,66.79"
2024-05-28_13-14-21.209205,"87.27,49.50"
2024-05-28_13-14-21.241951,"88.54,51.94"
2024-05-28_13-14-21.270701,"96.31,73.94"
2024-05-28_13-14-21.303428,"64.04,89.84"
2024-05-28_13-14-21.336203,"94.74,85.34"
2024-05-28_13-14-21.368983,"94.72,83.66"
2024-05-28_13-14-21.401754,"72.60,71.62"
2024-05-28_13-14-21.434465,"102.57,87.71"
2024-05-28_13-14-21.467170,"68.71,73.62"
2024-05-28_13-14-21.496004,"88.79,79.73"
2024-05-28_13-14-21.528727,"79.29,71.52"
2024-05-28_13-14-21.561452,"86.57,79.90"
2024-05-28_13-14-21.594229,"94.61,71.58"
2024-05-28_13-14-21.627035,"83.07,55.11"
2024-05-28_13-14-21.659736,"95.31,51.21"
2024-05-28_13-14-21.692458,"66.83,67.86"
2024-05-28_13-14-21.721217,"97.45,82.99"
2024-05-28_13-14-21.753978,"102.07,85.98"
2024-05-28_13-14-21.786756,"75.02,68.62"
2024-05-28_13-14-21.819531,"84.13,79.89"
2024-05-28_13-14-21.852286,"74.04,72.12"
2024-05-28_13-14-21.885052,"83.53,81.92"
2024-05-28_13-14-21.917729,"86.90,80.64"
2024-05-28_13-14-21.946475,"88.04,69.06"
2024-05-28_13-14-21.979283,"83.02,51.22"
2024-05-28_13-14-22.012035,"101.58,56.73"
2024-05-28_13-14-22.044782,"88.46,55.73"
2024-05-28_13-14-22.077547,"64.80,77.15"
2024-05-28_13-14-22.110279,"93.07,80.39"
2024-05-28_13-14-22.143003,"83.94,81.71"
2024-05-28_13-14-22.171784,"81.20,77.82"
2024-05-28_13-14-22.204495,"77.18,74.73"
2024-05-28_13-14-22.237249,"81.71,78.18"
2024-05-28_13-14-22.270030,"76.50,71.64"
2024-05-28_13-14-22.302919,"80.80,76.50"
2024-05-28_13-14-22.335569,"95.45,77.16"
2024-05-28_13-14-22.368254,"76.58,53.86"
2024-05-28_13-14-22.396991,"97.07,68.94"
2024-05-28_13-14-22.429760,"88.82,64.97"
2024-05-28_13-14-22.462581,"67.44,74.09"
2024-05-28_13-14-22.495334,"89.35,88.33"
2024-05-28_13-14-22.528120,"91.36,66.88"
2024-05-28_13-14-22.560904,"95.61,87.43"
2024-05-28_13-14-22.593531,"84.77,76.62"
2024-05-28_13-14-22.626221,"82.40,82.62"
2024-05-28_13-14-22.655128,"89.89,78.89"
2024-05-28_13-14-22.687950,"85.30,73.10"
2024-05-28_13-14-22.720615,"106.80,62.97"
2024-05-28_13-14-22.753376,"94.19,56.34"
2024-05-28_13-14-22.786189,"92.54,70.27"
2024-05-28_13-14-22.818853,"90.61,76.67"
2024-05-28_13-14-22.851461,"63.72,65.47"
2024-05-28_13-14-22.880267,"96.98,88.84"
2024-05-28_13-14-22.913089,"97.59,88.02"
2024-05-28_13-14-22.945920,"72.53,70.49"
2024-05-28_13-14-22.978647,"85.96,80.26"
2024-05-28_13-14-23.011401,"75.27,72.70"
2024-05-28_13-14-23.044075,"82.66,76.74"
2024-05-28_13-14-23.076773,"89.42,83.66"
2024-05-28_13-14-23.105635,"76.69,69.50"
2024-05-28_13-14-23.138349,"94.47,68.22"
2024-05-28_13-14-23.171126,"90.40,55.73"
2024-05-28_13-14-23.203858,"91.35,45.57"
2024-05-28_13-14-23.236613,"61.21,71.84"
2024-05-28_13-14-23.269342,"84.94,81.60"
2024-05-28_13-14-23.302016,"83.47,82.01"
2024-05-28_13-14-23.330840,"79.62,84.99"
2024-05-28_13-14-23.363584,"86.24,83.40"
2024-05-28_13-14-23.396361,"81.29,77.28"
2024-05-28_13-14-23.429118,"78.21,68.42"
2024-05-28_13-14-23.461862,"80.61,80.10"
2024-05-28_13-14-23.494591,"86.05,71.34"
2024-05-28_13-14-23.527295,"87.46,82.21"
2024-05-28_13-14-23.556170,"104.20,51.88"
2024-05-28_13-14-23.588854,"83.33,78.35"
2024-05-28_13-14-23.621608,"61.89,78.02"
2024-05-28_13-14-23.654347,"96.34,93.50"
2024-05-28_13-14-23.687140,"94.73,66.94"
2024-05-28_13-14-23.719868,"75.08,82.31"
2024-05-28_13-14-23.752566,"77.33,76.11"
2024-05-28_13-14-23.781430,"87.75,76.16"
2024-05-28_13-14-23.814109,"86.96,84.36"
2024-05-28_13-14-23.846936,"73.24,70.52"
2024-05-28_13-14-23.879629,"90.19,81.86"
2024-05-28_13-14-23.912431,"85.28,71.53"
2024-05-28_13-14-23.945120,"86.53,64.15"
2024-05-28_13-14-23.977805,"98.79,57.03"
2024-05-28_13-14-24.006607,"57.35,62.11"
2024-05-28_13-14-24.039349,"89.12,88.75"
2024-05-28_13-14-24.072187,"102.23,86.83"
2024-05-28_13-14-24.104895,"87.39,78.02"
2024-05-28_13-14-24.137701,"102.23,81.85"
2024-05-28_13-14-24.170397,"79.35,70.99"
2024-05-28_13-14-24.203086,"83.98,79.02"
2024-05-28_13-14-24.231860,"76.49,71.14"
2024-05-28_13-14-24.264630,"86.97,81.74"
2024-05-28_13-14-24.297392,"90.85,81.44"
2024-05-28_13-14-24.330161,"88.77,51.60"
2024-05-28_13-14-24.362971,"95.16,50.79"
2024-05-28_13-14-24.395645,"64.04,95.29"
2024-05-28_13-14-24.428379,"82.75,84.64"
2024-05-28_13-14-24.457119,"93.40,80.43"
2024-05-28_13-14-24.489940,"83.75,67.90"
2024-05-28_13-14-24.522756,"84.43,81.10"
2024-05-28_13-14-24.555433,"79.18,84.83"
2024-05-28_13-14-24.588194,"83.74,70.39"
2024-05-28_13-14-24.620931,"73.77,79.18"
2024-05-28_13-14-24.653614,"84.69,71.59"
2024-05-28_13-14-24.682384,"80.97,77.67"
2024-05-28_13-14-24.715152,"108.45,56.10"
2024-05-28_13-14-24.747920,"78.59,55.69"
2024-05-28_13-14-24.780736,"68.42,78.44"
2024-05-28_13-14-24.813546,"83.94,80.89"
2024-05-28_13-14-24.846208,"81.63,84.64"
2024-05-28_13-14-24.878903,"87.21,87.42"
2024-05-28_13-14-24.907707,"80.57,73.63"
2024-05-28_13-14-24.940497,"78.59,78.79"
2024-05-28_13-14-24.973209,"77.49,71.78"
2024-05-28_13-14-25.005955,"88.07,81.67"
2024-05-28_13-14-25.038763,"90.26,81.69"
2024-05-28_13-14-25.071643,"87.89,68.06"
2024-05-28_13-14-25.104142,"97.99,56.83"
2024-05-28_13-14-25.132957,"83.86,83.30"
2024-05-28_13-14-25.165709,"81.89,79.95"
2024-05-28_13-14-25.198437,"97.20,85.35"
2024-05-28_13-14-25.231264,"71.22,66.06"
2024-05-28_13-14-25.263966,"98.59,82.86"
2024-05-28_13-14-25.296800,"87.56,85.87"
2024-05-28_13-14-25.329427,"78.28,71.91"
2024-05-28_13-14-25.358150,"91.05,78.82"
2024-05-28_13-14-25.390991,"83.72,71.22"
2024-05-28_13-14-25.424136,"84.16,76.99"
2024-05-28_13-14-25.456536,"79.65,65.94"
2024-05-28_13-14-25.489324,"75.53,60.91"
2024-05-28_13-14-25.522029,"86.23,55.85"
2024-05-28_13-14-25.554722,"67.05,87.07"
2024-05-28_13-14-25.587583,"93.50,88.68"
2024-05-28_13-14-25.616307,"89.49,83.28"
2024-05-28_13-14-25.649018,"83.24,83.45"
2024-05-28_13-14-25.681763,"73.21,78.52"
2024-05-28_13-14-25.714509,"78.98,71.87"
2024-05-28_13-14-25.747262,"82.16,81.36"
2024-05-28_13-14-25.779969,"87.08,80.74"
2024-05-28_13-14-25.812694,"84.95,68.36"
2024-05-28_13-14-25.841466,"83.32,81.47"
2024-05-28_13-14-25.874217,"90.74,55.48"
2024-05-28_13-14-25.907055,"68.98,79.66"
2024-05-28_13-14-25.939836,"74.21,91.56"
2024-05-28_13-14-25.972554,"81.34,84.80"
2024-05-28_13-14-26.005259,"88.61,76.32"
2024-05-28_13-14-26.037946,"87.34,89.04"
2024-05-28_13-14-26.066750,"79.75,72.24"
2024-05-28_13-14-26.099537,"84.52,78.55"
2024-05-28_13-14-26.132320,"88.54,71.60"
2024-05-28_13-14-26.165062,"84.05,78.90"
2024-05-28_13-14-26.197862,"95.99,84.06"
2024-05-28_13-14-26.230510,"76.26,70.85"
2024-05-28_13-14-26.263220,"107.76,53.63"
2024-05-28_13-14-26.292000,"72.99,67.20"
2024-05-28_13-14-26.324772,"82.47,79.03"
2024-05-28_13-14-26.357526,"94.95,88.86"
2024-05-28_13-14-26.390293,"94.51,72.38"
2024-05-28_13-14-26.423075,"77.41,81.12"
2024-05-28_13-14-26.455912,"78.74,75.79"
2024-05-28_13-14-26.488493,"86.99,82.39"
2024-05-28_13-14-26.517285,"90.82,79.49"
2024-05-28_13-14-26.550021,"82.14,68.12"
2024-05-28_13-14-26.582765,"83.39,80.98"
2024-05-28_13-14-26.615555,"84.48,72.17"
2024-05-28_13-14-26.648334,"105.68,70.05"
2024-05-28_13-14-26.681020,"87.37,82.93"
2024-05-28_13-14-26.713781,"58.25,57.04"
2024-05-28_13-14-26.742531,"99.89,87.78"
2024-05-28_13-14-26.775363,"103.52,86.72"
2024-05-28_13-14-26.808142,"76.22,80.63"
2024-05-28_13-14-26.840832,"75.93,78.39"
2024-05-28_13-14-26.873587,"80.05,74.00"
2024-05-28_13-14-26.906336,"74.33,77.07"
2024-05-28_13-14-26.939015,"92.00,82.92"
2024-05-28_13-14-26.967825,"76.40,70.42"
2024-05-28_13-14-27.000599,"90.30,69.00"
2024-05-28_13-14-27.033367,"100.18,66.17"
2024-05-28_13-14-27.066120,"68.15,86.34"
2024-05-28_13-14-27.098906,"87.63,82.61"
2024-05-28_13-14-27.131603,"92.44,74.42"
2024-05-28_13-14-27.164303,"93.29,94.50"
2024-05-28_13-14-27.193089,"75.24,80.85"
2024-05-28_13-14-27.225874,"89.02,83.35"
2024-05-28_13-14-27.258578,"82.87,78.89"
2024-05-28_13-14-27.291448,"85.15,68.95"
2024-05-28_13-14-27.324202,"81.96,79.38"
2024-05-28_13-14-27.356821,"90.18,59.87"
2024-05-28_13-14-27.389556,"87.42,70.20"
2024-05-28_13-14-27.418301,"96.62,51.60"
2024-05-28_13-14-27.451110,"78.02,53.52"
2024-05-28_13-14-27.483845,"68.75,73.74"
2024-05-28_13-14-27.516623,"103.21,88.88"
2024-05-28_13-14-27.549553,"94.35,70.03"
2024-05-28_13-14-27.582120,"89.12,84.77"
2024-05-28_13-14-27.614838,"69.12,74.80"
2024-05-28_13-14-27.643574,"91.67,75.26"
2024-05-28_13-14-27.676330,"70.31,82.83"
2024-05-28_13-14-27.709143,"76.83,70.38"
2024-05-28_13-14-27.741876,"90.99,80.94"
2024-05-28_13-14-27.774703,"84.61,71.69"
2024-05-28_13-14-27.807489,"99.30,64.78"
2024-05-28_13-14-27.840115,"76.19,57.35"
2024-05-28_13-14-27.868887,"57.79,67.73"
2024-05-28_13-14-27.901693,"94.07,90.24"
2024-05-28_13-14-27.934445,"100.13,69.66"
2024-05-28_13-14-27.967197,"85.36,87.33"
2024-05-28_13-14-27.999884,"78.83,78.01"
2024-05-28_13-14-28.032685,"84.21,69.10"
2024-05-28_13-14-28.065358,"75.06,79.20"
2024-05-28_13-14-28.094101,"82.70,71.40"
2024-05-28_13-14-28.126935,"90.36,68.07"
2024-05-28_13-14-28.159792,"91.18,72.40"
2024-05-28_13-14-28.192434,"80.76,72.63"
2024-05-28_13-14-28.225182,"75.62,105.40"
2024-05-28_13-14-28.257915,"69.43,76.88"
2024-05-28_13-14-28.290720,"87.28,83.39"
2024-05-28_13-14-28.319425,"84.30,79.07"
2024-05-28_13-14-28.352132,"80.24,77.61"
2024-05-28_13-14-28.384975,"81.49,75.13"
2024-05-28_13-14-28.417772,"84.77,84.40"
2024-05-28_13-14-28.450491,"64.97,72.09"
2024-05-28_13-14-28.483202,"88.99,82.02"
2024-05-28_13-14-28.515922,"85.37,70.58"
2024-05-28_13-14-28.548623,"80.57,64.16"
2024-05-28_13-14-28.577403,"107.57,56.46"
2024-05-28_13-14-28.610155,"64.11,83.04"
2024-05-28_13-14-28.642932,"75.64,71.83"
2024-05-28_13-14-28.675705,"99.72,80.53"
2024-05-28_13-14-28.708463,"85.57,88.05"
2024-05-28_13-14-28.741175,"82.41,80.89"
2024-05-28_13-14-28.773879,"72.67,72.26"
2024-05-28_13-14-28.802741,"78.82,79.38"
2024-05-28_13-14-28.835435,"82.98,71.67"
2024-05-28_13-14-28.868177,"88.72,81.72"
2024-05-28_13-14-28.900961,"89.68,81.63"
2024-05-28_13-14-28.933732,"83.37,51.88"
2024-05-28_13-14-28.966457,"101.00,51.69"
2024-05-28_13-14-28.999792,"74.08,77.81"
2024-05-28_13-14-29.027983,"82.74,67.44"
2024-05-28_13-14-29.060756,"83.28,76.20"
2024-05-28_13-14-29.093480,"90.20,81.88"
2024-05-28_13-14-29.126254,"81.60,81.25"
2024-05-28_13-14-29.159039,"100.33,85.73"
2024-05-28_13-14-29.191670,"78.44,71.14"
2024-05-28_13-14-29.224387,"70.29,79.81"
2024-05-28_13-14-29.253250,"84.20,71.58"
2024-05-28_13-14-29.285962,"84.59,77.24"
2024-05-28_13-14-29.318725,"90.76,55.93"
2024-05-28_13-14-29.351513,"87.08,56.08"
2024-05-28_13-14-29.384231,"72.83,57.24"
2024-05-28_13-14-29.416982,"88.94,85.87"
2024-05-28_13-14-29.449827,"94.29,90.12"
2024-05-28_13-14-29.478693,"94.40,87.82"
2024-05-28_13-14-29.511249,"75.96,62.75"
2024-05-28_13-14-29.544010,"61.14,93.23"
2024-05-28_13-14-29.576769,"81.50,71.73"
2024-05-28_13-14-29.609499,"70.58,80.35"
2024-05-28_13-14-29.642217,"89.70,81.62"
2024-05-28_13-14-29.674936,"85.24,68.90"
2024-05-28_13-14-29.703943,"78.14,67.74"
2024-05-28_13-14-29.736507,"98.86,56.38"
2024-05-28_13-14-29.769266,"63.69,77.11"
2024-05-28_13-14-29.802034,"88.75,86.24"
2024-05-28_13-14-29.834763,"98.61,78.11"
2024-05-28_13-14-29.867517,"81.90,71.60"
2024-05-28_13-14-29.900202,"94.17,84.57"
2024-05-28_13-14-29.928990,"72.42,72.38"
2024-05-28_13-14-29.961768,"90.11,79.31"
2024-05-28_13-14-29.994536,"75.96,71.20"
2024-05-28_13-14-30.027297,"79.85,77.11"
2024-05-28_13-14-30.060074,"95.42,84.78"
2024-05-28_13-14-30.092882,"86.18,53.50"
2024-05-28_13-14-30.125463,"98.76,50.95"
2024-05-28_13-14-30.154252,"68.95,88.32"
2024-05-28_13-14-30.186969,"83.74,78.00"
2024-05-28_13-14-30.219771,"92.97,86.22"
2024-05-28_13-14-30.252555,"92.29,83.01"
2024-05-28_13-14-30.285302,"79.03,82.33"
2024-05-28_13-14-30.318045,"71.83,72.44"
2024-05-28_13-14-30.350744,"93.20,81.48"
2024-05-28_13-14-30.379501,"71.67,79.08"
2024-05-28_13-14-30.412269,"84.21,67.80"
2024-05-28_13-14-30.445024,"82.06,81.35"
2024-05-28_13-14-30.477799,"101.91,56.10"
2024-05-28_13-14-30.510654,"89.64,54.84"
2024-05-28_13-14-30.543441,"65.43,79.56"
2024-05-28_13-14-30.579275,"77.78,85.17"
2024-05-28_13-14-30.604807,"95.85,69.70"
2024-05-28_13-14-30.637687,"76.64,99.56"
2024-05-28_13-14-30.670351,"67.56,78.22"
2024-05-28_13-14-30.703130,"76.60,84.74"
2024-05-28_13-14-30.735823,"87.69,71.56"
2024-05-28_13-14-30.768655,"81.10,76.35"
2024-05-28_13-14-30.801254,"93.27,84.71"
2024-05-28_13-14-30.830041,"79.04,70.57"
2024-05-28_13-14-30.862793,"96.26,68.66"
2024-05-28_13-14-30.895646,"87.30,60.14"
2024-05-28_13-14-30.928337,"66.90,64.07"
2024-05-28_13-14-30.961106,"89.15,90.30"
2024-05-28_13-14-30.993874,"97.30,85.01"
2024-05-28_13-14-31.026603,"85.21,70.62"
2024-05-28_13-14-31.055313,"84.25,75.01"
2024-05-28_13-14-31.088081,"83.87,83.38"
2024-05-28_13-14-31.120831,"87.32,79.65"
2024-05-28_13-14-31.153935,"69.02,75.00"
2024-05-28_13-14-31.186519,"90.63,63.82"
2024-05-28_13-14-31.219262,"90.58,80.81"
2024-05-28_13-14-31.251792,"96.22,58.02"
2024-05-28_13-14-31.280798,"88.08,55.06"
2024-05-28_13-14-31.313427,"57.14,66.65"
2024-05-28_13-14-31.346267,"87.05,78.92"
2024-05-28_13-14-31.378945,"95.21,88.84"
2024-05-28_13-14-31.411717,"84.18,71.53"
2024-05-28_13-14-31.444467,"81.25,82.26"
2024-05-28_13-14-31.477064,"68.65,75.32"
2024-05-28_13-14-31.505895,"83.74,76.77"
2024-05-28_13-14-31.538788,"92.57,83.64"
2024-05-28_13-14-31.571449,"81.11,61.32"
2024-05-28_13-14-31.604237,"92.78,90.34"
2024-05-28_13-14-31.636978,"98.02,69.49"
2024-05-28_13-14-31.669740,"74.43,69.14"
2024-05-28_13-14-31.702413,"75.22,83.55"
2024-05-28_13-14-31.735072,"92.89,78.73"
2024-05-28_13-14-31.763933,"95.74,90.54"
2024-05-28_13-14-31.799070,"100.13,94.87"
2024-05-28_13-14-31.829881,"54.00,72.74"
2024-05-28_13-14-31.862231,"85.58,91.57"
2024-05-28_13-14-31.894919,"88.28,69.98"
2024-05-28_13-14-31.927833,"82.00,80.42"
2024-05-28_13-14-31.960451,"86.65,81.21"
2024-05-28_13-14-31.989251,"110.52,58.94"
2024-05-28_13-14-32.022025,"97.73,62.00"
2024-05-28_13-14-32.054723,"64.95,62.37"
2024-05-28_13-14-32.087536,"81.71,59.38"
2024-05-28_13-14-32.120253,"88.34,87.57"
2024-05-28_13-14-32.153230,"84.17,79.31"
2024-05-28_13-14-32.185649,"78.41,82.46"
2024-05-28_13-14-32.214690,"52.42,77.95"
2024-05-28_13-14-32.247234,"86.44,73.65"
2024-05-28_13-14-32.280226,"78.95,73.34"
2024-05-28_13-14-32.314233,"81.81,63.61"
2024-05-28_13-14-32.345609,"107.58,73.48"
2024-05-28_13-14-32.378202,"98.23,65.32"
2024-05-28_13-14-32.410973,"80.77,83.11"
2024-05-28_13-14-32.439715,"93.79,82.88"
2024-05-28_13-14-32.472621,"90.01,81.79"
2024-05-28_13-14-32.505318,"82.00,83.45"
2024-05-28_13-14-32.538104,"83.83,81.19"
2024-05-28_13-14-32.570782,"98.20,87.75"
2024-05-28_13-14-32.603467,"79.39,93.60"
2024-05-28_13-14-32.636126,"86.32,69.26"
2024-05-28_13-14-32.665088,"81.85,74.22"
2024-05-28_13-14-32.697745,"80.90,70.33"
2024-05-28_13-14-32.730534,"100.30,65.68"
2024-05-28_13-14-32.763247,"95.09,53.72"
2024-05-28_13-14-32.795994,"87.61,53.16"
2024-05-28_13-14-32.828827,"63.08,93.99"
2024-05-28_13-14-32.861420,"86.47,85.97"
2024-05-28_13-14-32.890365,"86.56,91.81"
2024-05-28_13-14-32.923041,"81.74,91.41"
2024-05-28_13-14-32.955878,"81.68,83.31"
2024-05-28_13-14-32.988552,"89.57,82.72"
2024-05-28_13-14-33.021401,"88.38,76.02"
2024-05-28_13-14-33.053962,"74.06,57.52"
2024-05-28_13-14-33.086737,"90.34,70.53"
2024-05-28_13-14-33.115478,"86.17,59.59"
2024-05-28_13-14-33.148261,"87.08,66.04"
2024-05-28_13-14-33.181362,"80.85,73.33"
2024-05-28_13-14-33.213771,"74.62,87.98"
2024-05-28_13-14-33.246673,"76.58,52.41"
2024-05-28_13-14-33.279260,"92.85,84.69"
2024-05-28_13-14-33.311933,"83.89,88.88"
2024-05-28_13-14-33.340741,"77.74,78.29"
2024-05-28_13-14-33.373546,"89.73,72.44"
2024-05-28_13-14-33.406545,"85.67,70.91"
2024-05-28_13-14-33.439163,"88.15,76.21"
2024-05-28_13-14-33.471836,"95.05,65.15"
2024-05-28_13-14-33.504582,"96.84,69.21"
2024-05-28_13-14-33.537412,"99.09,52.70"
2024-05-28_13-14-33.566075,"64.99,71.25"
2024-05-28_13-14-33.598809,"88.98,62.43"
2024-05-28_13-14-33.631532,"97.92,79.72"
2024-05-28_13-14-33.664263,"70.69,73.17"
2024-05-28_13-14-33.697045,"82.13,78.12"
2024-05-28_13-14-33.729856,"81.78,75.92"
2024-05-28_13-14-33.762602,"87.36,83.91"
2024-05-28_13-14-33.791288,"75.06,70.74"
2024-05-28_13-14-33.824005,"94.28,75.01"
2024-05-28_13-14-33.856733,"83.23,71.99"
2024-05-28_13-14-33.889636,"98.47,64.35"
2024-05-28_13-14-33.922358,"77.06,68.84"
2024-05-28_13-14-33.955015,"82.81,91.06"
2024-05-28_13-14-33.987740,"94.19,78.72"
2024-05-28_13-14-34.016583,"98.31,92.47"
2024-05-28_13-14-34.049276,"89.53,90.16"
2024-05-28_13-14-34.082072,"85.90,81.34"
2024-05-28_13-14-34.114794,"79.38,69.79"
2024-05-28_13-14-34.147592,"85.18,78.27"
2024-05-28_13-14-34.180362,"82.64,69.84"
2024-05-28_13-14-34.213066,"88.68,69.44"
2024-05-28_13-14-34.241736,"87.43,82.24"
2024-05-28_13-14-34.274565,"89.56,52.24"
2024-05-28_13-14-34.307266,"83.21,68.88"
2024-05-28_13-14-34.340071,"70.09,93.93"
2024-05-28_13-14-34.372858,"91.28,78.46"
2024-05-28_13-14-34.405643,"93.46,88.07"
2024-05-28_13-14-34.438288,"75.06,66.28"
2024-05-28_13-14-34.471011,"88.48,89.46"
2024-05-28_13-14-34.500023,"77.89,88.08"
2024-05-28_13-14-34.532662,"76.92,71.67"
2024-05-28_13-14-34.565465,"83.21,80.25"
2024-05-28_13-14-34.598195,"114.28,67.81"
2024-05-28_13-14-34.630924,"98.74,68.63"
2024-05-28_13-14-34.663556,"91.26,59.54"
2024-05-28_13-14-34.696278,"62.04,83.44"
2024-05-28_13-14-34.725146,"74.16,68.85"
2024-05-28_13-14-34.757914,"90.27,83.21"
2024-05-28_13-14-34.790678,"88.33,77.88"
2024-05-28_13-14-34.823413,"96.55,88.47"
2024-05-28_13-14-34.856161,"83.56,74.16"
2024-05-28_13-14-34.888825,"79.15,80.86"
2024-05-28_13-14-34.921621,"85.96,74.47"
2024-05-28_13-14-34.950403,"93.70,78.07"
2024-05-28_13-14-34.983127,"97.45,61.56"
2024-05-28_13-14-35.015869,"92.27,51.70"
2024-05-28_13-14-35.048761,"87.55,51.81"
2024-05-28_13-14-35.081445,"51.44,61.97"
2024-05-28_13-14-35.114186,"89.35,67.32"
2024-05-28_13-14-35.146809,"97.46,90.80"
2024-05-28_13-14-35.175776,"81.57,69.85"
2024-05-28_13-14-35.208410,"100.13,85.28"
2024-05-28_13-14-35.241246,"89.24,86.83"
2024-05-28_13-14-35.274005,"83.94,72.27"
2024-05-28_13-14-35.306728,"93.43,82.67"
2024-05-28_13-14-35.339427,"94.80,65.65"
2024-05-28_13-14-35.372100,"100.60,71.07"
2024-05-28_13-14-35.400922,"102.98,58.03"
2024-05-28_13-14-35.433655,"66.82,69.60"
2024-05-28_13-14-35.466786,"79.84,74.76"
2024-05-28_13-14-35.499261,"85.22,71.10"
2024-05-28_13-14-35.532010,"90.68,82.92"
2024-05-28_13-14-35.564662,"94.86,86.28"
2024-05-28_13-14-35.597349,"81.05,74.02"
2024-05-28_13-14-35.626190,"85.62,84.18"
2024-05-28_13-14-35.658938,"81.44,86.56"
2024-05-28_13-14-35.691705,"103.88,70.42"
2024-05-28_13-14-35.724557,"94.15,79.34"
2024-05-28_13-14-35.757292,"89.46,67.97"
2024-05-28_13-14-35.789922,"83.28,76.05"
2024-05-28_13-14-35.822632,"68.47,77.90"
2024-05-28_13-14-35.851453,"81.94,84.85"
2024-05-28_13-14-35.884242,"84.16,87.60"
2024-05-28_13-14-35.916991,"97.89,83.89"
2024-05-28_13-14-35.949744,"69.69,79.21"
2024-05-28_13-14-35.982492,"61.53,96.38"
2024-05-28_13-14-36.015359,"75.23,73.66"
2024-05-28_13-14-36.047868,"88.46,82.65"
2024-05-28_13-14-36.076686,"96.69,61.51"
2024-05-28_13-14-36.109541,"93.57,62.39"
2024-05-28_13-14-36.142209,"103.33,68.95"
2024-05-28_13-14-36.175131,"77.46,88.85"
2024-05-28_13-14-36.207762,"80.78,95.72"
2024-05-28_13-14-36.240580,"96.19,90.56"
2024-05-28_13-14-36.273147,"92.73,75.04"
2024-05-28_13-14-36.302062,"87.60,81.30"
2024-05-28_13-14-36.334754,"69.51,83.87"
2024-05-28_13-14-36.368182,"84.99,85.00"
2024-05-28_13-14-36.400275,"97.07,78.11"
2024-05-28_13-14-36.433048,"88.98,85.59"
2024-05-28_13-14-36.465751,"104.35,55.57"
2024-05-28_13-14-36.498487,"84.10,70.36"
2024-05-28_13-14-36.527216,"98.75,59.67"
2024-05-28_13-14-36.559997,"67.17,52.75"
2024-05-28_13-14-36.592846,"79.61,76.98"
2024-05-28_13-14-36.625616,"69.44,79.92"
2024-05-28_13-14-36.658308,"89.05,84.34"
2024-05-28_13-14-36.691100,"94.58,87.41"
2024-05-28_13-14-36.723664,"94.34,87.18"
2024-05-28_13-14-36.752537,"77.23,72.28"
2024-05-28_13-14-36.785235,"84.06,80.23"
2024-05-28_13-14-36.818018,"86.80,71.64"
2024-05-28_13-14-36.850825,"81.98,78.34"
2024-05-28_13-14-36.883577,"99.38,57.51"
2024-05-28_13-14-36.916343,"82.43,78.19"
2024-05-28_13-14-36.948938,"68.37,62.05"
2024-05-28_13-14-36.977836,"92.49,73.37"
2024-05-28_13-14-37.010555,"82.70,87.76"
2024-05-28_13-14-37.043371,"97.87,87.05"
2024-05-28_13-14-37.076086,"85.54,78.75"
2024-05-28_13-14-37.108879,"86.05,81.53"
2024-05-28_13-14-37.141632,"83.20,76.09"
2024-05-28_13-14-37.174270,"77.46,65.30"
2024-05-28_13-14-37.203039,"95.51,67.31"
2024-05-28_13-14-37.235790,"101.38,51.07"
2024-05-28_13-14-37.268572,"76.75,50.93"
2024-05-28_13-14-37.301359,"87.57,76.50"
2024-05-28_13-14-37.334237,"92.32,81.87"
2024-05-28_13-14-37.366962,"78.71,71.20"
2024-05-28_13-14-37.399642,"90.83,81.55"
2024-05-28_13-14-37.432228,"56.63,91.83"
2024-05-28_13-14-37.461063,"76.23,89.61"
2024-05-28_13-14-37.493842,"75.74,72.43"
2024-05-28_13-14-37.526577,"92.12,83.63"
2024-05-28_13-14-37.559312,"110.58,65.72"
2024-05-28_13-14-37.592364,"81.10,64.96"
2024-05-28_13-14-37.624808,"87.71,58.65"
2024-05-28_13-14-37.657450,"64.17,57.40"
2024-05-28_13-14-37.686311,"90.97,66.66"
2024-05-28_13-14-37.719261,"92.13,89.89"
2024-05-28_13-14-37.751839,"87.18,74.69"
2024-05-28_13-14-37.784749,"88.99,85.72"
2024-05-28_13-14-37.817354,"66.14,73.49"
2024-05-28_13-14-37.850059,"77.79,80.93"
2024-05-28_13-14-37.882744,"83.87,85.95"
2024-05-28_13-14-37.911598,"92.86,62.26"
2024-05-28_13-14-37.944386,"94.24,68.65"
2024-05-28_13-14-37.977064,"99.14,51.59"
2024-05-28_13-14-38.009909,"91.34,53.00"
2024-05-28_13-14-38.042681,"60.28,65.40"
2024-05-28_13-14-38.075280,"82.80,64.63"
2024-05-28_13-14-38.108109,"87.76,69.65"
2024-05-28_13-14-38.136890,"84.16,85.57"
2024-05-28_13-14-38.169685,"75.42,82.91"
2024-05-28_13-14-38.202373,"79.73,80.57"
2024-05-28_13-14-38.235153,"84.10,60.29"
2024-05-28_13-14-38.267969,"105.25,64.29"
2024-05-28_13-14-38.300651,"93.44,58.88"
2024-05-28_13-14-38.333296,"99.79,67.34"
2024-05-28_13-14-38.362123,"86.65,57.53"
2024-05-28_13-14-38.394884,"70.11,55.77"
2024-05-28_13-14-38.427613,"77.73,92.65"
2024-05-28_13-14-38.460390,"88.40,58.23"
2024-05-28_13-14-38.493230,"79.98,91.62"
2024-05-28_13-14-38.525871,"79.19,88.07"
2024-05-28_13-14-38.558583,"62.58,72.95"
2024-05-28_13-14-38.587425,"79.27,81.86"
2024-05-28_13-14-38.620156,"86.05,76.51"
2024-05-28_13-14-38.652867,"83.79,62.53"
2024-05-28_13-14-38.685692,"87.37,75.66"
2024-05-28_13-14-38.718451,"77.92,62.87"
2024-05-28_13-14-38.751144,"81.92,76.18"
2024-05-28_13-14-38.783842,"87.96,79.99"
2024-05-28_13-14-38.812668,"79.20,68.96"
2024-05-28_13-14-38.845401,"98.81,80.59"
2024-05-28_13-14-38.878238,"92.41,83.06"
2024-05-28_13-14-38.911048,"59.63,87.85"
2024-05-28_13-14-38.943884,"73.07,83.78"
2024-05-28_13-14-38.976783,"107.75,56.17"
2024-05-28_13-14-39.009203,"106.53,77.18"
2024-05-28_13-14-39.037975,"100.61,88.73"
2024-05-28_13-14-39.070803,"91.03,57.31"
2024-05-28_13-14-39.103507,"89.07,70.01"
2024-05-28_13-14-39.136254,"82.96,75.76"
2024-05-28_13-14-39.169033,"76.09,69.91"
2024-05-28_13-14-39.201675,"93.25,67.37"
2024-05-28_13-14-39.234477,"78.68,87.87"
2024-05-28_13-14-39.263231,"68.90,82.41"
2024-05-28_13-14-39.296169,"74.37,71.99"
2024-05-28_13-14-39.328747,"85.03,74.90"
2024-05-28_13-14-39.361519,"103.91,84.43"
2024-05-28_13-14-39.394296,"98.59,54.33"
2024-05-28_13-14-39.426940,"92.36,75.69"
2024-05-28_13-14-39.459692,"88.81,56.55"
2024-05-28_13-14-39.488619,"70.54,78.42"
2024-05-28_13-14-39.521197,"81.10,72.48"
2024-05-28_13-14-39.553987,"91.79,74.31"
2024-05-28_13-14-39.586761,"84.51,89.67"
2024-05-28_13-14-39.619595,"52.94,86.54"
2024-05-28_13-14-39.652262,"76.38,81.43"
2024-05-28_13-14-39.684896,"91.78,83.85"
2024-05-28_13-14-39.713730,"60.86,69.47"
2024-05-28_13-14-39.746546,"87.23,75.71"
2024-05-28_13-14-39.779385,"90.91,90.34"
2024-05-28_13-14-39.812249,"82.96,66.13"
2024-05-28_13-14-39.845150,"73.76,61.60"
2024-05-28_13-14-39.877545,"82.72,68.76"
2024-05-28_13-14-39.910200,"77.29,81.88"
2024-05-28_13-14-39.938935,"90.79,77.15"
2024-05-28_13-14-39.971766,"86.46,83.91"
2024-05-28_13-14-40.004638,"86.65,79.12"
2024-05-28_13-14-40.037273,"78.32,71.99"
2024-05-28_13-14-40.070025,"88.86,82.23"
2024-05-28_13-14-40.102793,"93.74,65.13"
2024-05-28_13-14-40.135567,"87.23,53.78"
2024-05-28_13-14-40.164239,"83.78,68.83"
2024-05-28_13-14-40.197030,"88.30,87.06"
2024-05-28_13-14-40.229756,"84.63,77.12"
2024-05-28_13-14-40.262539,"93.24,92.35"
2024-05-28_13-14-40.295297,"91.90,74.42"
2024-05-28_13-14-40.328108,"89.59,84.91"
2024-05-28_13-14-40.360868,"75.44,73.48"
2024-05-28_13-14-40.393425,"102.06,71.49"
2024-05-28_13-14-40.422258,"88.48,84.46"
2024-05-28_13-14-40.455136,"84.32,66.34"
2024-05-28_13-14-40.487890,"95.89,79.12"
2024-05-28_13-14-40.520592,"81.14,61.21"
2024-05-28_13-14-40.553423,"83.65,81.98"
2024-05-28_13-14-40.585995,"79.05,62.88"
2024-05-28_13-14-40.618763,"90.61,68.44"
2024-05-28_13-14-40.647550,"95.21,81.44"
2024-05-28_13-14-40.680352,"101.13,81.44"
2024-05-28_13-14-40.713044,"88.69,85.17"
2024-05-28_13-14-40.745976,"84.01,80.24"
2024-05-28_13-14-40.778598,"81.05,62.90"
2024-05-28_13-14-40.811311,"83.05,74.23"
2024-05-28_13-14-40.843988,"84.06,72.68"
2024-05-28_13-14-40.872776,"83.05,67.24"
2024-05-28_13-14-40.905571,"74.40,79.14"
2024-05-28_13-14-40.938350,"64.48,64.34"
2024-05-28_13-14-40.971147,"90.95,95.54"
2024-05-28_13-14-41.003871,"77.17,82.25"
2024-05-28_13-14-41.036504,"88.51,79.88"
2024-05-28_13-14-41.069214,"65.03,90.38"
2024-05-28_13-14-41.098070,"80.93,73.28"
2024-05-28_13-14-41.130991,"75.15,75.87"
2024-05-28_13-14-41.163656,"91.09,84.69"
2024-05-28_13-14-41.196350,"95.80,57.25"
2024-05-28_13-14-41.229129,"99.38,58.90"
2024-05-28_13-14-41.261873,"84.01,72.84"
2024-05-28_13-14-41.294535,"76.98,57.80"
2024-05-28_13-14-41.323373,"89.27,86.90"
2024-05-28_13-14-41.356185,"88.50,70.77"
2024-05-28_13-14-41.388934,"86.04,87.96"
2024-05-28_13-14-41.421615,"85.87,77.57"
2024-05-28_13-14-41.454365,"85.89,82.94"
2024-05-28_13-14-41.487049,"68.95,80.09"
2024-05-28_13-14-41.519757,"76.70,73.84"
2024-05-28_13-14-41.548595,"98.07,71.17"
2024-05-28_13-14-41.581347,"94.15,69.26"
2024-05-28_13-14-41.614167,"88.02,55.53"
2024-05-28_13-14-41.646936,"59.57,51.35"
2024-05-28_13-14-41.679658,"80.99,68.05"
2024-05-28_13-14-41.712312,"87.48,80.53"
2024-05-28_13-14-41.745061,"84.77,89.72"
2024-05-28_13-14-41.773814,"78.49,73.57"
2024-05-28_13-14-41.806589,"84.81,79.59"
2024-05-28_13-14-41.839336,"74.77,72.29"
2024-05-28_13-14-41.872142,"81.21,77.03"
2024-05-28_13-14-41.904970,"96.14,85.07"
2024-05-28_13-14-41.937655,"80.19,77.83"
2024-05-28_13-14-41.970328,"90.89,68.41"
2024-05-28_13-14-41.999153,"77.93,71.20"
2024-05-28_13-14-42.031896,"93.22,82.71"
2024-05-28_13-14-42.064639,"96.11,77.29"
2024-05-28_13-14-42.097482,"90.97,80.64"
2024-05-28_13-14-42.130194,"90.81,84.01"
2024-05-28_13-14-42.162850,"78.39,72.19"
2024-05-28_13-14-42.195745,"81.31,81.55"
2024-05-28_13-14-42.224387,"87.40,76.24"
2024-05-28_13-14-42.257177,"109.76,58.60"
2024-05-28_13-14-42.289995,"85.41,65.80"
2024-05-28_13-14-42.322689,"93.37,74.84"
2024-05-28_13-14-42.355475,"80.69,68.91"
2024-05-28_13-14-42.388145,"80.16,57.50"
2024-05-28_13-14-42.420855,"91.06,73.31"
2024-05-28_13-14-42.449666,"81.18,79.36"
2024-05-28_13-14-42.482440,"89.16,86.14"
2024-05-28_13-14-42.515173,"69.69,72.01"
2024-05-28_13-14-42.547988,"105.50,70.51"
2024-05-28_13-14-42.580726,"106.18,68.98"
2024-05-28_13-14-42.613478,"100.84,74.99"
2024-05-28_13-14-42.646159,"99.40,85.43"
2024-05-28_13-14-42.675033,"70.29,64.95"
2024-05-28_13-14-42.707749,"76.56,75.92"
2024-05-28_13-14-42.740463,"93.94,70.37"
2024-05-28_13-14-42.773194,"95.63,96.53"
2024-05-28_13-14-42.805952,"82.18,79.91"
2024-05-28_13-14-42.838694,"75.18,71.71"
2024-05-28_13-14-42.871389,"82.47,78.41"
2024-05-28_13-14-42.900173,"76.28,71.19"
2024-05-28_13-14-42.932898,"87.54,82.33"
2024-05-28_13-14-42.965660,"88.50,81.59"
2024-05-28_13-14-42.998441,"85.36,51.98"
2024-05-28_13-14-43.031197,"78.42,57.63"
2024-05-28_13-14-43.063977,"72.87,92.01"
2024-05-28_13-14-43.096617,"88.27,82.78"
2024-05-28_13-14-43.125409,"91.37,73.12"
2024-05-28_13-14-43.158390,"86.08,76.58"
2024-05-28_13-14-43.190948,"90.53,78.44"
2024-05-28_13-14-43.223716,"86.10,85.68"
2024-05-28_13-14-43.256498,"75.54,70.25"
2024-05-28_13-14-43.289230,"87.89,80.59"
2024-05-28_13-14-43.321907,"83.75,71.72"
2024-05-28_13-14-43.354629,"91.17,46.95"
2024-05-28_13-14-43.383529,"69.78,87.36"
2024-05-28_13-14-43.416252,"83.90,77.99"
2024-05-28_13-14-43.449049,"90.78,85.95"
2024-05-28_13-14-43.481695,"91.85,71.01"
2024-05-28_13-14-43.514809,"86.40,83.09"
2024-05-28_13-14-43.547221,"79.57,81.72"
2024-05-28_13-14-43.579904,"84.02,69.01"
2024-05-28_13-14-43.608709,"82.02,79.93"
2024-05-28_13-14-43.641751,"85.15,71.55"
2024-05-28_13-14-43.674304,"90.61,78.51"
2024-05-28_13-14-43.707003,"91.64,66.98"
2024-05-28_13-14-43.739754,"58.80,59.18"
2024-05-28_13-14-43.772490,"91.99,78.91"
2024-05-28_13-14-43.805188,"105.89,87.48"
2024-05-28_13-14-43.833942,"74.32,81.53"
2024-05-28_13-14-43.866725,"77.76,79.96"
2024-05-28_13-14-43.899753,"82.27,72.65"
2024-05-28_13-14-43.935057,"74.02,75.94"
2024-05-28_13-14-43.965219,"90.15,75.81"
2024-05-28_13-14-43.997798,"94.38,77.76"
2024-05-28_13-14-44.030431,"88.01,60.72"
2024-05-28_13-14-44.059234,"83.89,56.37"
2024-05-28_13-14-44.094167,"72.68,58.04"
2024-05-28_13-14-44.127562,"79.94,76.85"
2024-05-28_13-14-44.157633,"93.04,69.85"
2024-05-28_13-14-44.190354,"62.63,87.93"
2024-05-28_13-14-44.223017,"55.34,80.65"
2024-05-28_13-14-44.255726,"87.50,82.38"
2024-05-28_13-14-44.285689,"80.77,79.19"
2024-05-28_13-14-44.318288,"77.40,68.75"
2024-05-28_13-14-44.350076,"81.53,65.11"
2024-05-28_13-14-44.382884,"87.05,70.64"
2024-05-28_13-14-44.415588,"85.92,56.44"
2024-05-28_13-14-44.448281,"75.99,79.46"
2024-05-28_13-14-44.480980,"93.11,78.03"
2024-05-28_13-14-44.509835,"94.38,85.40"
2024-05-28_13-14-44.542730,"82.35,80.43"
2024-05-28_13-14-44.575352,"87.02,77.08"
2024-05-28_13-14-44.608153,"82.18,80.20"
2024-05-28_13-14-44.640866,"86.35,70.84"
2024-05-28_13-14-44.673656,"82.35,77.59"
2024-05-28_13-14-44.706235,"96.18,85.67"
2024-05-28_13-14-44.735035,"89.89,53.88"
2024-05-28_13-14-44.767858,"80.70,56.18"
2024-05-28_13-14-44.800597,"87.26,88.16"
2024-05-28_13-14-44.833398,"89.44,91.27"
2024-05-28_13-14-44.866089,"90.94,72.68"
2024-05-28_13-14-44.898795,"89.16,75.44"
2024-05-28_13-14-44.931547,"76.61,77.73"
2024-05-28_13-14-44.960328,"87.58,71.60"
2024-05-28_13-14-44.993025,"87.80,81.66"
2024-05-28_13-14-45.025829,"89.95,81.51"
2024-05-28_13-14-45.058602,"82.98,68.37"
2024-05-28_13-14-45.091404,"93.93,68.78"
2024-05-28_13-14-45.124095,"74.56,56.62"
2024-05-28_13-14-45.156778,"75.85,80.58"
2024-05-28_13-14-45.185565,"92.87,80.11"
2024-05-28_13-14-45.218408,"93.60,69.22"
2024-05-28_13-14-45.251100,"85.28,79.24"
2024-05-28_13-14-45.283919,"81.27,85.14"
2024-05-28_13-14-45.316716,"76.87,70.22"
