timestamp,EMG
2024-05-28_12-55-56.402555,"72.52,56.80"
2024-05-28_12-55-56.435295,"61.01,57.24"
2024-05-28_12-55-56.468124,"72.29,76.21"
2024-05-28_12-55-56.500745,"84.22,91.55"
2024-05-28_12-55-56.529490,"93.99,86.03"
2024-05-28_12-55-56.562274,"88.16,79.83"
2024-05-28_12-55-56.595038,"92.28,74.22"
2024-05-28_12-55-56.627942,"95.41,78.45"
2024-05-28_12-55-56.660600,"101.72,56.25"
2024-05-28_12-55-56.693319,"88.46,54.19"
2024-05-28_12-55-56.726023,"108.74,53.03"
2024-05-28_12-55-56.754749,"94.76,56.46"
2024-05-28_12-55-56.787564,"77.32,48.60"
2024-05-28_12-55-56.820332,"69.31,61.76"
2024-05-28_12-55-56.853065,"64.82,62.65"
2024-05-28_12-55-56.885891,"75.69,91.78"
2024-05-28_12-55-56.918596,"83.34,94.18"
2024-05-28_12-55-56.951262,"92.90,78.50"
2024-05-28_12-55-56.980001,"102.31,80.56"
2024-05-28_12-55-57.012861,"92.69,70.29"
2024-05-28_12-55-57.045590,"98.10,68.02"
2024-05-28_12-55-57.078437,"105.53,56.44"
2024-05-28_12-55-57.111162,"95.57,53.47"
2024-05-28_12-55-57.143940,"111.21,53.58"
2024-05-28_12-55-57.176564,"84.21,52.76"
2024-05-28_12-55-57.205308,"66.96,56.02"
2024-05-28_12-55-57.238060,"58.67,57.12"
2024-05-28_12-55-57.270867,"77.71,83.87"
2024-05-28_12-55-57.303672,"83.58,85.20"
2024-05-28_12-55-57.336403,"78.26,80.32"
2024-05-28_12-55-57.369164,"91.66,86.98"
2024-05-28_12-55-57.401842,"99.43,85.81"
2024-05-28_12-55-57.430562,"89.03,70.84"
2024-05-28_12-55-57.463435,"108.01,52.65"
2024-05-28_12-55-57.496153,"98.14,57.21"
2024-05-28_12-55-57.528942,"101.23,46.69"
2024-05-28_12-55-57.561658,"88.71,59.15"
2024-05-28_12-55-57.594389,"55.33,58.73"
2024-05-28_12-55-57.627105,"64.47,78.26"
2024-05-28_12-55-57.659806,"81.58,88.75"
2024-05-28_12-55-57.688664,"86.46,89.82"
2024-05-28_12-55-57.721350,"95.39,88.47"
2024-05-28_12-55-57.754153,"87.15,72.47"
2024-05-28_12-55-57.791838,"94.22,81.88"
2024-05-28_12-55-57.830655,"90.82,60.09"
2024-05-28_12-55-57.855371,"85.10,54.91"
2024-05-28_12-55-57.885320,"94.25,55.02"
2024-05-28_12-55-57.916552,"74.44,53.04"
2024-05-28_12-55-57.947067,"81.09,56.86"
2024-05-28_12-55-57.979541,"76.64,58.70"
2024-05-28_12-55-58.012233,"72.61,64.39"
2024-05-28_12-55-58.044974,"73.95,83.14"
2024-05-28_12-55-58.077638,"78.59,79.94"
2024-05-28_12-55-58.110376,"80.55,92.98"
2024-05-28_12-55-58.139194,"90.76,93.26"
2024-05-28_12-55-58.172088,"88.47,74.97"
2024-05-28_12-55-58.204693,"104.31,68.30"
2024-05-28_12-55-58.237446,"96.85,56.37"
2024-05-28_12-55-58.270184,"89.01,46.79"
2024-05-28_12-55-58.302942,"107.51,56.60"
2024-05-28_12-55-58.335620,"80.57,55.74"
2024-05-28_12-55-58.367920,"72.98,56.90"
2024-05-28_12-55-58.397347,"60.28,57.11"
2024-05-28_12-55-58.429995,"78.96,77.01"
2024-05-28_12-55-58.462780,"69.19,95.56"
2024-05-28_12-55-58.495515,"92.98,81.73"
2024-05-28_12-55-58.528232,"89.48,81.19"
2024-05-28_12-55-58.561724,"100.55,71.51"
2024-05-28_12-55-58.589755,"92.52,82.38"
2024-05-28_12-55-58.622487,"104.83,52.87"
2024-05-28_12-55-58.655181,"97.02,51.75"
2024-05-28_12-55-58.688274,"100.20,53.38"
2024-05-28_12-55-58.720824,"109.56,57.51"
2024-05-28_12-55-58.753439,"70.96,57.49"
2024-05-28_12-55-58.786156,"67.75,58.71"
2024-05-28_12-55-58.815406,"67.03,59.86"
2024-05-28_12-55-58.848899,"78.51,82.58"
2024-05-28_12-55-58.880544,"78.44,98.74"
2024-05-28_12-55-58.913289,"71.00,85.17"
2024-05-28_12-55-58.946051,"88.33,80.81"
2024-05-28_12-55-58.978741,"95.66,72.78"
2024-05-28_12-55-59.011438,"99.21,46.40"
2024-05-28_12-55-59.040191,"112.59,57.04"
2024-05-28_12-55-59.072968,"88.21,54.68"
2024-05-28_12-55-59.105732,"107.04,53.41"
2024-05-28_12-55-59.138483,"78.48,58.00"
2024-05-28_12-55-59.171251,"66.02,52.67"
2024-05-28_12-55-59.204006,"70.96,94.27"
2024-05-28_12-55-59.236705,"76.26,80.45"
2024-05-28_12-55-59.265548,"83.27,86.08"
2024-05-28_12-55-59.298213,"98.67,81.97"
2024-05-28_12-55-59.331021,"84.17,87.94"
2024-05-28_12-55-59.363784,"99.19,80.72"
2024-05-28_12-55-59.396522,"95.88,68.88"
2024-05-28_12-55-59.429312,"100.68,52.36"
2024-05-28_12-55-59.462084,"107.20,56.58"
2024-05-28_12-55-59.490804,"97.58,54.00"
2024-05-28_12-55-59.523535,"88.38,56.03"
2024-05-28_12-55-59.558836,"64.88,56.55"
2024-05-28_12-55-59.590375,"67.40,64.52"
2024-05-28_12-55-59.622037,"77.56,75.74"
2024-05-28_12-55-59.654685,"73.29,85.01"
2024-05-28_12-55-59.687340,"100.01,85.39"
2024-05-28_12-55-59.716063,"84.61,81.81"
2024-05-28_12-55-59.748897,"91.49,81.67"
2024-05-28_12-55-59.781550,"106.06,57.35"
2024-05-28_12-55-59.814348,"88.69,54.54"
2024-05-28_12-55-59.847179,"109.19,53.71"
2024-05-28_12-55-59.879874,"86.75,57.55"
2024-05-28_12-55-59.912544,"87.36,48.52"
2024-05-28_12-55-59.941392,"75.95,61.83"
2024-05-28_12-55-59.974208,"56.48,59.00"
2024-05-28_12-56-00.006889,"72.66,83.78"
2024-05-28_12-56-00.039595,"84.30,87.69"
2024-05-28_12-56-00.072503,"77.45,86.54"
2024-05-28_12-56-00.111275,"90.24,92.25"
2024-05-28_12-56-00.137923,"86.58,63.43"
2024-05-28_12-56-00.166640,"78.74,60.93"
2024-05-28_12-56-00.199331,"95.89,56.91"
2024-05-28_12-56-00.232111,"84.42,54.02"
2024-05-28_12-56-00.264871,"103.25,53.72"
2024-05-28_12-56-00.297623,"88.26,53.03"
2024-05-28_12-56-00.330443,"67.33,56.47"
2024-05-28_12-56-00.363084,"61.66,56.71"
2024-05-28_12-56-00.391894,"74.42,87.25"
2024-05-28_12-56-00.424597,"81.98,87.75"
2024-05-28_12-56-00.457343,"79.18,81.69"
2024-05-28_12-56-00.491165,"90.41,83.85"
2024-05-28_12-56-00.523098,"109.57,88.51"
2024-05-28_12-56-00.555711,"78.16,55.73"
2024-05-28_12-56-00.588885,"96.24,55.44"
2024-05-28_12-56-00.621061,"87.57,57.84"
2024-05-28_12-56-00.649916,"99.86,46.99"
2024-05-28_12-56-00.682608,"91.71,57.47"
2024-05-28_12-56-00.715459,"56.55,58.35"
2024-05-28_12-56-00.748210,"65.54,78.69"
2024-05-28_12-56-00.780911,"80.67,90.30"
2024-05-28_12-56-00.813623,"84.88,89.67"
2024-05-28_12-56-00.846374,"95.53,90.14"
2024-05-28_12-56-00.875163,"86.28,73.28"
2024-05-28_12-56-00.907920,"89.94,84.97"
2024-05-28_12-56-00.940961,"97.93,57.38"
2024-05-28_12-56-00.973481,"93.20,53.93"
2024-05-28_12-56-01.006292,"107.52,54.63"
2024-05-28_12-56-01.038889,"97.08,51.58"
2024-05-28_12-56-01.071648,"94.50,53.19"
2024-05-28_12-56-01.100388,"73.93,60.88"
2024-05-28_12-56-01.133147,"64.10,58.44"
2024-05-28_12-56-01.165937,"70.25,76.93"
2024-05-28_12-56-01.198669,"78.65,79.60"
2024-05-28_12-56-01.231440,"85.26,90.41"
2024-05-28_12-56-01.264149,"94.60,89.75"
2024-05-28_12-56-01.296873,"77.03,74.21"
2024-05-28_12-56-01.325800,"102.54,67.63"
2024-05-28_12-56-01.359268,"96.15,57.47"
2024-05-28_12-56-01.429952,"83.16,49.55"
2024-05-28_12-56-01.449504,"103.11,59.14"
2024-05-28_12-56-01.463988,"80.55,55.95"
2024-05-28_12-56-01.496846,"88.53,86.34"
2024-05-28_12-56-01.522121,"67.64,70.86"
2024-05-28_12-56-01.550962,"81.43,68.25"
2024-05-28_12-56-01.583856,"72.77,96.86"
2024-05-28_12-56-01.616493,"85.12,69.19"
2024-05-28_12-56-01.649240,"64.89,96.22"
2024-05-28_12-56-01.682047,"90.33,82.98"
2024-05-28_12-56-01.714741,"84.74,71.59"
2024-05-28_12-56-01.747424,"92.47,56.90"
2024-05-28_12-56-01.776194,"97.01,51.72"
2024-05-28_12-56-01.809365,"100.26,53.65"
2024-05-28_12-56-01.841721,"90.21,58.52"
2024-05-28_12-56-01.874531,"70.97,57.01"
2024-05-28_12-56-01.908805,"71.95,57.45"
2024-05-28_12-56-01.939955,"72.01,64.77"
2024-05-28_12-56-01.973144,"74.06,72.32"
2024-05-28_12-56-02.001505,"67.19,91.38"
2024-05-28_12-56-02.034275,"68.74,86.72"
2024-05-28_12-56-02.067073,"80.37,89.57"
2024-05-28_12-56-02.099812,"89.54,74.54"
2024-05-28_12-56-02.132553,"97.29,46.89"
2024-05-28_12-56-02.165248,"113.04,57.14"
2024-05-28_12-56-02.198014,"89.84,54.41"
2024-05-28_12-56-02.226734,"102.38,53.45"
2024-05-28_12-56-02.259452,"82.35,57.58"
2024-05-28_12-56-02.293486,"66.39,52.23"
2024-05-28_12-56-02.325030,"71.60,92.50"
2024-05-28_12-56-02.357898,"79.27,80.72"
2024-05-28_12-56-02.391039,"80.56,88.40"
2024-05-28_12-56-02.423286,"101.90,84.33"
2024-05-28_12-56-02.452093,"91.57,85.11"
2024-05-28_12-56-02.484825,"104.24,81.97"
2024-05-28_12-56-02.517554,"95.81,68.81"
2024-05-28_12-56-02.550365,"100.75,52.51"
2024-05-28_12-56-02.583195,"108.69,57.60"
2024-05-28_12-56-02.615833,"104.26,54.89"
2024-05-28_12-56-02.648518,"101.51,55.78"
2024-05-28_12-56-02.677226,"71.05,55.79"
2024-05-28_12-56-02.710003,"65.68,59.75"
2024-05-28_12-56-02.742835,"67.54,81.49"
2024-05-28_12-56-02.775554,"79.93,82.38"
2024-05-28_12-56-02.808409,"84.40,91.81"
2024-05-28_12-56-02.841124,"77.94,85.67"
2024-05-28_12-56-02.873800,"85.72,85.31"
2024-05-28_12-56-02.902519,"97.50,58.81"
2024-05-28_12-56-02.935276,"89.55,55.46"
2024-05-28_12-56-02.968110,"92.23,54.62"
2024-05-28_12-56-03.000852,"78.29,60.44"
2024-05-28_12-56-03.034850,"89.22,52.67"
2024-05-28_12-56-03.066537,"76.77,63.07"
2024-05-28_12-56-03.099070,"57.00,87.11"
2024-05-28_12-56-03.127812,"74.72,91.34"
2024-05-28_12-56-03.160540,"84.58,89.16"
2024-05-28_12-56-03.193402,"80.30,81.76"
2024-05-28_12-56-03.226106,"92.19,93.58"
2024-05-28_12-56-03.258842,"85.77,74.80"
2024-05-28_12-56-03.291622,"97.93,68.34"
2024-05-28_12-56-03.324323,"97.70,57.34"
2024-05-28_12-56-03.353106,"84.43,54.67"
2024-05-28_12-56-03.385891,"105.97,54.46"
2024-05-28_12-56-03.435742,"85.34,56.12"
2024-05-28_12-56-03.451418,"73.46,83.44"
2024-05-28_12-56-03.484159,"76.31,73.26"
2024-05-28_12-56-03.516956,"78.17,73.21"
2024-05-28_12-56-03.549581,"70.21,92.10"
2024-05-28_12-56-03.582313,"72.39,79.79"
2024-05-28_12-56-03.611132,"80.75,92.31"
2024-05-28_12-56-03.643840,"95.30,90.35"
2024-05-28_12-56-03.676585,"87.92,54.82"
2024-05-28_12-56-03.709397,"107.24,53.32"
2024-05-28_12-56-03.742127,"99.80,59.03"
2024-05-28_12-56-03.774875,"104.69,47.34"
2024-05-28_12-56-03.807603,"97.45,58.89"
2024-05-28_12-56-03.836310,"61.41,59.32"
2024-05-28_12-56-03.869122,"67.39,85.25"
2024-05-28_12-56-03.902289,"81.14,68.43"
2024-05-28_12-56-03.934834,"79.68,94.36"
2024-05-28_12-56-03.967500,"84.36,95.28"
2024-05-28_12-56-04.000232,"82.49,75.92"
2024-05-28_12-56-04.052457,"76.02,78.35"
2024-05-28_12-56-04.061978,"90.15,66.11"
2024-05-28_12-56-04.094975,"84.93,56.67"
2024-05-28_12-56-04.127405,"83.98,58.72"
2024-05-28_12-56-04.164522,"97.44,52.26"
2024-05-28_12-56-04.196393,"89.81,58.45"
2024-05-28_12-56-04.225431,"80.04,59.87"
2024-05-28_12-56-04.258116,"65.06,88.41"
2024-05-28_12-56-04.286870,"67.33,77.58"
2024-05-28_12-56-04.319685,"82.05,79.55"
2024-05-28_12-56-04.352477,"89.86,96.03"
2024-05-28_12-56-04.386617,"87.94,92.32"
2024-05-28_12-56-04.418033,"90.39,78.51"
2024-05-28_12-56-04.450668,"92.72,58.42"
2024-05-28_12-56-04.483452,"97.64,58.76"
2024-05-28_12-56-04.512266,"102.11,47.60"
2024-05-28_12-56-04.544964,"95.83,60.08"
2024-05-28_12-56-04.577912,"80.39,58.33"
2024-05-28_12-56-04.610458,"90.27,57.79"
2024-05-28_12-56-04.643253,"68.07,57.93"
2024-05-28_12-56-04.675979,"75.33,74.09"
2024-05-28_12-56-04.708675,"78.74,95.07"
2024-05-28_12-56-04.737431,"77.86,85.20"
2024-05-28_12-56-04.770342,"66.76,94.68"
2024-05-28_12-56-04.803596,"80.06,83.50"
2024-05-28_12-56-04.835785,"95.45,56.60"
2024-05-28_12-56-04.868553,"95.60,52.16"
2024-05-28_12-56-04.901218,"97.25,51.10"
2024-05-28_12-56-04.933935,"89.89,52.55"
2024-05-28_12-56-04.962730,"102.21,56.47"
2024-05-28_12-56-04.995466,"73.17,56.14"
2024-05-28_12-56-05.028276,"68.79,56.98"
2024-05-28_12-56-05.060990,"67.69,60.06"
2024-05-28_12-56-05.093865,"82.42,89.79"
2024-05-28_12-56-05.126556,"79.14,97.53"
2024-05-28_12-56-05.159219,"77.55,78.00"
2024-05-28_12-56-05.188018,"91.59,81.48"
2024-05-28_12-56-05.220802,"95.26,72.26"
2024-05-28_12-56-05.253510,"98.79,64.67"
2024-05-28_12-56-05.287177,"112.10,56.79"
2024-05-28_12-56-05.323186,"74.83,54.89"
2024-05-28_12-56-05.352563,"78.69,55.62"
2024-05-28_12-56-05.384831,"82.05,58.36"
2024-05-28_12-56-05.413361,"69.50,49.20"
2024-05-28_12-56-05.446203,"71.03,76.15"
2024-05-28_12-56-05.491936,"74.42,71.76"
2024-05-28_12-56-05.520259,"69.07,89.09"
2024-05-28_12-56-05.545292,"84.39,92.89"
2024-05-28_12-56-05.577010,"74.85,79.59"
2024-05-28_12-56-05.611089,"82.71,60.86"
2024-05-28_12-56-05.638533,"89.94,53.81"
2024-05-28_12-56-05.671895,"87.58,55.99"
2024-05-28_12-56-05.704035,"74.43,58.53"
2024-05-28_12-56-05.736866,"84.01,56.12"
2024-05-28_12-56-05.769581,"78.60,57.54"
2024-05-28_12-56-05.802282,"64.16,56.06"
2024-05-28_12-56-05.834996,"74.55,81.35"
2024-05-28_12-56-05.867535,"78.55,94.59"
2024-05-28_12-56-05.910442,"84.75,84.39"
2024-05-28_12-56-05.931156,"65.88,93.56"
2024-05-28_12-56-05.962856,"89.42,79.49"
2024-05-28_12-56-05.994905,"95.65,81.93"
2024-05-28_12-56-06.027634,"107.78,56.72"
2024-05-28_12-56-06.060460,"82.78,54.55"
2024-05-28_12-56-06.089075,"70.54,56.21"
2024-05-28_12-56-06.123534,"106.02,57.77"
2024-05-28_12-56-06.154616,"79.21,49.13"
2024-05-28_12-56-06.187380,"78.55,85.82"
2024-05-28_12-56-06.220167,"67.44,61.16"
2024-05-28_12-56-06.252848,"75.98,92.00"
2024-05-28_12-56-06.285557,"88.13,83.45"
2024-05-28_12-56-06.314289,"93.76,79.45"
2024-05-28_12-56-06.347112,"98.30,81.72"
2024-05-28_12-56-06.379844,"93.22,71.11"
2024-05-28_12-56-06.412648,"97.55,68.79"
2024-05-28_12-56-06.445380,"105.44,56.47"
2024-05-28_12-56-06.478149,"96.19,53.75"
2024-05-28_12-56-06.510830,"101.05,53.67"
2024-05-28_12-56-06.539621,"82.73,53.64"
2024-05-28_12-56-06.577886,"69.45,54.90"
2024-05-28_12-56-06.605195,"73.08,59.17"
2024-05-28_12-56-06.637915,"75.00,84.39"
2024-05-28_12-56-06.670629,"83.04,85.68"
2024-05-28_12-56-06.705079,"79.91,81.65"
2024-05-28_12-56-06.736098,"89.61,83.15"
2024-05-28_12-56-06.764864,"96.81,78.43"
2024-05-28_12-56-06.797635,"82.40,55.66"
2024-05-28_12-56-06.830643,"105.50,52.88"
2024-05-28_12-56-06.863284,"73.37,57.73"
2024-05-28_12-56-06.899276,"80.01,49.23"
2024-05-28_12-56-06.928725,"85.78,58.97"
2024-05-28_12-56-06.961400,"59.52,57.85"
2024-05-28_12-56-06.990052,"65.93,73.47"
2024-05-28_12-56-07.026248,"78.70,88.30"
2024-05-28_12-56-07.055724,"76.20,79.62"
2024-05-28_12-56-07.088428,"88.92,91.01"
2024-05-28_12-56-07.121157,"75.18,80.04"
2024-05-28_12-56-07.153965,"96.28,80.52"
2024-05-28_12-56-07.186652,"99.31,56.43"
2024-05-28_12-56-07.215389,"95.09,53.64"
2024-05-28_12-56-07.248143,"108.03,53.29"
2024-05-28_12-56-07.281135,"102.43,51.79"
2024-05-28_12-56-07.313684,"85.39,54.56"
2024-05-28_12-56-07.346483,"67.72,61.53"
2024-05-28_12-56-07.379249,"75.03,86.45"
2024-05-28_12-56-07.411916,"69.86,81.93"
2024-05-28_12-56-07.444637,"80.84,78.41"
2024-05-28_12-56-07.473407,"98.91,89.62"
2024-05-28_12-56-07.506196,"100.02,79.38"
2024-05-28_12-56-07.538935,"85.42,72.52"
2024-05-28_12-56-07.571745,"105.94,67.76"
2024-05-28_12-56-07.604509,"96.13,56.69"
2024-05-28_12-56-07.640882,"99.78,46.90"
2024-05-28_12-56-07.669872,"90.08,58.22"
2024-05-28_12-56-07.698708,"63.66,55.97"
2024-05-28_12-56-07.731456,"75.04,56.89"
2024-05-28_12-56-07.764232,"60.51,63.54"
2024-05-28_12-56-07.797003,"77.59,66.26"
2024-05-28_12-56-07.829774,"75.19,96.03"
2024-05-28_12-56-07.862472,"83.54,85.05"
2024-05-28_12-56-07.895157,"90.67,82.55"
2024-05-28_12-56-07.923959,"92.47,74.76"
2024-05-28_12-56-07.956744,"92.78,53.71"
2024-05-28_12-56-07.989483,"107.61,52.99"
2024-05-28_12-56-08.022210,"97.32,51.41"
2024-05-28_12-56-08.055018,"95.49,52.86"
2024-05-28_12-56-08.087782,"92.93,58.70"
2024-05-28_12-56-08.120441,"62.82,57.67"
2024-05-28_12-56-08.149195,"62.98,77.98"
2024-05-28_12-56-08.182026,"75.19,80.49"
2024-05-28_12-56-08.214807,"86.39,89.55"
2024-05-28_12-56-08.247529,"95.57,97.46"
2024-05-28_12-56-08.280278,"83.77,72.67"
2024-05-28_12-56-08.312996,"103.87,79.92"
2024-05-28_12-56-08.345736,"92.93,72.04"
2024-05-28_12-56-08.374530,"90.32,64.77"
2024-05-28_12-56-08.407257,"113.06,57.12"
2024-05-28_12-56-08.440044,"93.06,54.52"
2024-05-28_12-56-08.472789,"92.98,53.45"
2024-05-28_12-56-08.505522,"64.57,59.02"
2024-05-28_12-56-08.538239,"76.53,78.21"
2024-05-28_12-56-08.570972,"73.01,91.20"
2024-05-28_12-56-08.599811,"81.21,80.39"
2024-05-28_12-56-08.632546,"97.13,84.31"
2024-05-28_12-56-08.665309,"92.74,83.02"
2024-05-28_12-56-08.698091,"89.97,82.53"
2024-05-28_12-56-08.730820,"104.63,68.16"
2024-05-28_12-56-08.763566,"96.28,51.31"
2024-05-28_12-56-08.796246,"100.34,52.98"
2024-05-28_12-56-08.825102,"98.68,57.51"
2024-05-28_12-56-08.857838,"78.22,56.41"
2024-05-28_12-56-08.890538,"70.23,57.92"
2024-05-28_12-56-08.923307,"73.42,74.60"
2024-05-28_12-56-08.956075,"76.70,80.81"
2024-05-28_12-56-08.988819,"81.29,90.99"
2024-05-28_12-56-09.021500,"91.86,79.27"
2024-05-28_12-56-09.050329,"93.51,86.59"
2024-05-28_12-56-09.083150,"87.53,73.86"
2024-05-28_12-56-09.115828,"96.04,64.81"
2024-05-28_12-56-09.148612,"111.07,56.48"
2024-05-28_12-56-09.181388,"88.64,54.18"
2024-05-28_12-56-09.214037,"112.02,53.60"
2024-05-28_12-56-09.246776,"83.36,58.19"
2024-05-28_12-56-09.275543,"65.37,51.72"
2024-05-28_12-56-09.308312,"75.66,63.03"
2024-05-28_12-56-09.341078,"77.38,80.32"
2024-05-28_12-56-09.373824,"84.58,86.82"
2024-05-28_12-56-09.406648,"88.13,86.04"
2024-05-28_12-56-09.439373,"82.37,87.22"
2024-05-28_12-56-09.472204,"97.63,80.71"
2024-05-28_12-56-09.500861,"94.63,51.62"
2024-05-28_12-56-09.533595,"99.78,52.54"
2024-05-28_12-56-09.566356,"106.18,56.67"
2024-05-28_12-56-09.599123,"95.11,54.10"
2024-05-28_12-56-09.631893,"82.43,54.96"
2024-05-28_12-56-09.664601,"61.55,57.02"
2024-05-28_12-56-09.697438,"76.93,55.39"
2024-05-28_12-56-09.726141,"81.39,93.20"
2024-05-28_12-56-09.758871,"92.14,83.13"
2024-05-28_12-56-09.791652,"87.28,79.68"
2024-05-28_12-56-09.824424,"87.61,81.52"
2024-05-28_12-56-09.857125,"95.35,78.50"
2024-05-28_12-56-09.889942,"111.37,56.27"
2024-05-28_12-56-09.922591,"74.98,54.11"
2024-05-28_12-56-09.951335,"108.72,52.88"
2024-05-28_12-56-09.984137,"94.73,56.56"
2024-05-28_12-56-10.016889,"75.10,48.68"
2024-05-28_12-56-10.049646,"68.19,61.20"
2024-05-28_12-56-10.082531,"63.18,60.43"
2024-05-28_12-56-10.115260,"80.98,89.96"
2024-05-28_12-56-10.147878,"86.15,86.68"
2024-05-28_12-56-10.176643,"85.16,87.49"
2024-05-28_12-56-10.209462,"97.96,82.32"
2024-05-28_12-56-10.242179,"89.85,53.51"
2024-05-28_12-56-10.274957,"96.13,52.73"
2024-05-28_12-56-10.307744,"108.06,56.67"
2024-05-28_12-56-10.340451,"105.18,53.96"
2024-05-28_12-56-10.373141,"98.27,53.76"
2024-05-28_12-56-10.401901,"68.32,55.30"
2024-05-28_12-56-10.434637,"65.98,56.42"
2024-05-28_12-56-10.467429,"80.61,79.71"
2024-05-28_12-56-10.501972,"78.56,82.50"
2024-05-28_12-56-10.533016,"79.82,93.14"
2024-05-28_12-56-10.566051,"79.19,86.85"
2024-05-28_12-56-10.598438,"93.91,75.66"
2024-05-28_12-56-10.627227,"97.89,85.15"
2024-05-28_12-56-10.659944,"87.11,54.22"
2024-05-28_12-56-10.692777,"108.71,53.51"
2024-05-28_12-56-10.725510,"105.61,56.93"
2024-05-28_12-56-10.758313,"91.52,47.16"
2024-05-28_12-56-10.790990,"73.92,61.08"
2024-05-28_12-56-10.823766,"55.52,59.22"
2024-05-28_12-56-10.852481,"71.13,79.93"
2024-05-28_12-56-10.885182,"86.11,85.60"
2024-05-28_12-56-10.917937,"78.02,86.17"
2024-05-28_12-56-10.950761,"96.10,88.72"
2024-05-28_12-56-10.983490,"86.87,72.34"
2024-05-28_12-56-11.016270,"100.50,81.04"
2024-05-28_12-56-11.048949,"95.32,56.05"
2024-05-28_12-56-11.081728,"94.63,53.52"
2024-05-28_12-56-11.110524,"110.64,53.49"
2024-05-28_12-56-11.143232,"84.31,52.76"
2024-05-28_12-56-11.175981,"66.07,56.49"
2024-05-28_12-56-11.208752,"73.68,57.43"
2024-05-28_12-56-11.241547,"76.37,83.51"
2024-05-28_12-56-11.274268,"83.71,85.13"
2024-05-28_12-56-11.306939,"93.13,75.60"
2024-05-28_12-56-11.335791,"99.37,86.36"
2024-05-28_12-56-11.368460,"98.48,85.93"
2024-05-28_12-56-11.402432,"87.54,54.20"
2024-05-28_12-56-11.434063,"107.44,52.70"
2024-05-28_12-56-11.466842,"97.29,56.89"
2024-05-28_12-56-11.501069,"103.70,47.46"
2024-05-28_12-56-11.532199,"87.64,59.00"
2024-05-28_12-56-11.561073,"56.60,58.20"
2024-05-28_12-56-11.593796,"72.27,99.11"
2024-05-28_12-56-11.626541,"81.67,88.79"
2024-05-28_12-56-11.659262,"89.37,90.23"
2024-05-28_12-56-11.692027,"97.42,83.98"
2024-05-28_12-56-11.724791,"101.91,73.16"
2024-05-28_12-56-11.757508,"98.22,81.28"
2024-05-28_12-56-11.786284,"104.90,56.28"
2024-05-28_12-56-11.819007,"95.98,53.62"
2024-05-28_12-56-11.851745,"96.17,53.45"
2024-05-28_12-56-11.884567,"97.33,51.92"
2024-05-28_12-56-11.917340,"71.46,55.42"
2024-05-28_12-56-11.950046,"64.18,75.78"
2024-05-28_12-56-11.982772,"79.10,74.36"
2024-05-28_12-56-12.011504,"79.46,86.20"
2024-05-28_12-56-12.044291,"93.73,78.31"
2024-05-28_12-56-12.077051,"88.87,78.72"
2024-05-28_12-56-12.109792,"108.76,81.56"
2024-05-28_12-56-12.142573,"85.09,70.35"
2024-05-28_12-56-12.175347,"97.02,68.80"
2024-05-28_12-56-12.208026,"96.73,56.38"
2024-05-28_12-56-12.236846,"100.46,46.52"
2024-05-28_12-56-12.269616,"87.52,57.93"
2024-05-28_12-56-12.302383,"55.77,58.27"
2024-05-28_12-56-12.335151,"76.92,66.16"
2024-05-28_12-56-12.367880,"83.35,87.01"
2024-05-28_12-56-12.400612,"88.62,83.24"
2024-05-28_12-56-12.433296,"97.83,82.95"
2024-05-28_12-56-12.462043,"89.87,82.60"
2024-05-28_12-56-12.494840,"97.64,79.75"
2024-05-28_12-56-12.527591,"94.73,71.87"
2024-05-28_12-56-12.560363,"95.25,53.21"
2024-05-28_12-56-12.593134,"107.10,53.16"
2024-05-28_12-56-12.625955,"103.13,51.66"
2024-05-28_12-56-12.658654,"74.21,54.74"
2024-05-28_12-56-12.687360,"62.07,77.55"
2024-05-28_12-56-12.720072,"79.01,74.44"
2024-05-28_12-56-12.752863,"80.17,86.29"
2024-05-28_12-56-12.785609,"93.33,77.55"
2024-05-28_12-56-12.818426,"84.73,80.68"
2024-05-28_12-56-12.851200,"98.72,88.04"
2024-05-28_12-56-12.883856,"84.85,70.86"
2024-05-28_12-56-12.916554,"103.67,53.10"
2024-05-28_12-56-12.945393,"96.72,57.18"
2024-05-28_12-56-12.978128,"105.68,46.27"
2024-05-28_12-56-13.010893,"94.85,57.07"
2024-05-28_12-56-13.043702,"56.44,58.12"
2024-05-28_12-56-13.076467,"68.54,62.08"
2024-05-28_12-56-13.109130,"80.46,88.60"
2024-05-28_12-56-13.137888,"85.17,89.19"
2024-05-28_12-56-13.170679,"90.09,90.04"
2024-05-28_12-56-13.203422,"79.90,79.94"
2024-05-28_12-56-13.236176,"101.65,81.27"
2024-05-28_12-56-13.269183,"103.37,71.56"
2024-05-28_12-56-13.301743,"89.72,53.81"
2024-05-28_12-56-13.334380,"106.27,54.38"
2024-05-28_12-56-13.367107,"101.19,51.31"
2024-05-28_12-56-13.395998,"82.34,53.38"
2024-05-28_12-56-13.428851,"68.40,59.81"
2024-05-28_12-56-13.461471,"72.38,68.65"
2024-05-28_12-56-13.494206,"72.63,80.85"
2024-05-28_12-56-13.527031,"79.44,84.07"
2024-05-28_12-56-13.559786,"79.89,92.50"
2024-05-28_12-56-13.588520,"98.00,83.87"
2024-05-28_12-56-13.621197,"83.61,71.14"
2024-05-28_12-56-13.653997,"106.35,68.73"
2024-05-28_12-56-13.686783,"97.12,56.85"
2024-05-28_12-56-13.719510,"98.71,46.67"
2024-05-28_12-56-13.752217,"105.12,56.52"
2024-05-28_12-56-13.784937,"65.06,57.05"
2024-05-28_12-56-13.817632,"68.01,57.16"
2024-05-28_12-56-13.846479,"70.73,70.18"
2024-05-28_12-56-13.879581,"82.44,78.68"
2024-05-28_12-56-13.912028,"82.11,94.78"
2024-05-28_12-56-13.944750,"83.25,74.69"
2024-05-28_12-56-13.977462,"95.26,82.25"
2024-05-28_12-56-14.010241,"105.10,71.73"
2024-05-28_12-56-14.042921,"84.32,53.45"
2024-05-28_12-56-14.071744,"108.99,52.96"
2024-05-28_12-56-14.104521,"103.50,51.51"
2024-05-28_12-56-14.137283,"86.87,54.38"
2024-05-28_12-56-14.169975,"68.21,61.26"
2024-05-28_12-56-14.202743,"73.38,86.13"
2024-05-28_12-56-14.235495,"75.92,91.13"
2024-05-28_12-56-14.268197,"78.07,89.27"
2024-05-28_12-56-14.296934,"92.90,89.14"
2024-05-28_12-56-14.329774,"102.15,79.94"
2024-05-28_12-56-14.362581,"85.95,73.35"
2024-05-28_12-56-14.395445,"88.03,58.40"
2024-05-28_12-56-14.428035,"92.60,56.98"
2024-05-28_12-56-14.460740,"90.04,47.02"
2024-05-28_12-56-14.493458,"110.52,56.71"
2024-05-28_12-56-14.522207,"67.18,57.22"
2024-05-28_12-56-14.555008,"68.43,58.19"
2024-05-28_12-56-14.587759,"70.06,70.99"
2024-05-28_12-56-14.620551,"82.56,79.45"
2024-05-28_12-56-14.653289,"84.54,97.02"
2024-05-28_12-56-14.686031,"84.30,76.89"
2024-05-28_12-56-14.718705,"81.42,81.22"
2024-05-28_12-56-14.747513,"90.87,71.47"
2024-05-28_12-56-14.780260,"95.21,70.13"
2024-05-28_12-56-14.813019,"108.53,53.50"
2024-05-28_12-56-14.845797,"103.17,51.61"
2024-05-28_12-56-14.878615,"85.12,53.53"
2024-05-28_12-56-14.911334,"65.10,61.82"
2024-05-28_12-56-14.944012,"72.12,81.11"
2024-05-28_12-56-14.972773,"76.13,90.54"
2024-05-28_12-56-15.005631,"80.55,79.47"
2024-05-28_12-56-15.038404,"87.12,95.63"
2024-05-28_12-56-15.071662,"84.76,93.94"
2024-05-28_12-56-15.104019,"82.24,61.59"
2024-05-28_12-56-15.136561,"99.61,54.07"
2024-05-28_12-56-15.169258,"83.57,72.07"
2024-05-28_12-56-15.198042,"90.45,46.57"
2024-05-28_12-56-15.230796,"107.81,56.92"
2024-05-28_12-56-15.263554,"70.41,56.64"
2024-05-28_12-56-15.296317,"70.59,57.45"
2024-05-28_12-56-15.329075,"70.58,89.73"
2024-05-28_12-56-15.361857,"82.30,79.96"
2024-05-28_12-56-15.394581,"84.97,99.53"
2024-05-28_12-56-15.423318,"84.00,75.66"
2024-05-28_12-56-15.456056,"97.53,79.95"
2024-05-28_12-56-15.488911,"107.80,71.93"
2024-05-28_12-56-15.521811,"86.30,71.22"
2024-05-28_12-56-15.554415,"100.77,56.00"
2024-05-28_12-56-15.587202,"106.47,51.28"
2024-05-28_12-56-15.620023,"93.16,53.11"
2024-05-28_12-56-15.648807,"73.06,59.43"
2024-05-28_12-56-15.681390,"72.57,69.16"
2024-05-28_12-56-15.714273,"68.50,90.55"
2024-05-28_12-56-15.746992,"76.41,81.45"
2024-05-28_12-56-15.779690,"71.10,96.07"
2024-05-28_12-56-15.812463,"90.84,88.09"
2024-05-28_12-56-15.846572,"81.31,73.87"
2024-05-28_12-56-15.873886,"104.23,68.01"
2024-05-28_12-56-15.906671,"97.64,57.45"
2024-05-28_12-56-15.970751,"97.49,47.33"
2024-05-28_12-56-15.972101,"102.41,57.93"
2024-05-28_12-56-16.005126,"73.93,55.89"
2024-05-28_12-56-16.039420,"76.90,78.61"
2024-05-28_12-56-16.070713,"81.96,65.90"
2024-05-28_12-56-16.116705,"76.22,83.81"
2024-05-28_12-56-16.131945,"63.85,105.34"
2024-05-28_12-56-16.164668,"73.73,89.40"
2024-05-28_12-56-16.197441,"77.50,90.54"
2024-05-28_12-56-16.230250,"94.75,73.27"
2024-05-28_12-56-16.263058,"94.83,70.21"
2024-05-28_12-56-16.295840,"93.70,55.77"
2024-05-28_12-56-16.328451,"89.75,52.84"
2024-05-28_12-56-16.357144,"84.20,57.39"
2024-05-28_12-56-16.404228,"73.04,60.24"
2024-05-28_12-56-16.423162,"72.57,68.96"
2024-05-28_12-56-16.455582,"73.32,70.41"
2024-05-28_12-56-16.488242,"71.69,81.99"
2024-05-28_12-56-16.520958,"94.83,89.38"
2024-05-28_12-56-16.553646,"93.84,90.40"
2024-05-28_12-56-16.582560,"79.23,75.20"
2024-05-28_12-56-16.615346,"95.38,53.67"
2024-05-28_12-56-16.648002,"96.40,57.11"
2024-05-28_12-56-16.680807,"90.19,47.14"
2024-05-28_12-56-16.713471,"99.48,57.45"
2024-05-28_12-56-16.746202,"69.31,56.57"
2024-05-28_12-56-16.778866,"71.11,56.95"
2024-05-28_12-56-16.807854,"70.51,91.46"
2024-05-28_12-56-16.840507,"78.09,82.74"
2024-05-28_12-56-16.873283,"75.62,97.11"
2024-05-28_12-56-16.906018,"91.11,82.70"
2024-05-28_12-56-16.938817,"83.66,84.99"
2024-05-28_12-56-16.971511,"103.17,58.53"
2024-05-28_12-56-17.004150,"94.17,53.74"
2024-05-28_12-56-17.032918,"98.77,52.84"
2024-05-28_12-56-17.065825,"96.16,51.33"
2024-05-28_12-56-17.098507,"82.07,53.84"
2024-05-28_12-56-17.131353,"76.10,60.35"
2024-05-28_12-56-17.164073,"76.57,87.78"
2024-05-28_12-56-17.196810,"68.94,84.62"
2024-05-28_12-56-17.229409,"75.68,81.27"
2024-05-28_12-56-17.258281,"83.15,91.05"
2024-05-28_12-56-17.290962,"96.91,85.24"
2024-05-28_12-56-17.323985,"81.88,74.64"
2024-05-28_12-56-17.356579,"101.80,68.65"
2024-05-28_12-56-17.389265,"95.63,57.43"
2024-05-28_12-56-17.422011,"100.33,46.93"
2024-05-28_12-56-17.454772,"114.92,56.88"
2024-05-28_12-56-17.483720,"71.75,56.63"
2024-05-28_12-56-17.516297,"78.99,90.75"
2024-05-28_12-56-17.549146,"83.22,63.17"
2024-05-28_12-56-17.581816,"76.64,84.04"
2024-05-28_12-56-17.614582,"71.41,105.30"
2024-05-28_12-56-17.647234,"74.09,85.94"
2024-05-28_12-56-17.680017,"96.92,85.36"
2024-05-28_12-56-17.708775,"99.13,59.78"
2024-05-28_12-56-17.741732,"93.34,53.97"
2024-05-28_12-56-17.774573,"91.50,54.52"
2024-05-28_12-56-17.807151,"87.99,53.24"
2024-05-28_12-56-17.839861,"89.29,55.33"
2024-05-28_12-56-17.872711,"70.14,60.86"
2024-05-28_12-56-17.905215,"71.17,69.35"
2024-05-28_12-56-17.934068,"69.93,91.10"
2024-05-28_12-56-17.966922,"78.41,79.49"
2024-05-28_12-56-17.999575,"88.09,92.89"
2024-05-28_12-56-18.032352,"90.45,87.54"
2024-05-28_12-56-18.065097,"81.47,61.73"
2024-05-28_12-56-18.097950,"94.14,52.98"
2024-05-28_12-56-18.130525,"98.14,57.43"
2024-05-28_12-56-18.159326,"88.82,47.08"
2024-05-28_12-56-18.192131,"109.91,57.55"
2024-05-28_12-56-18.224839,"69.62,57.14"
2024-05-28_12-56-18.257653,"72.45,56.83"
2024-05-28_12-56-18.290446,"70.23,58.28"
2024-05-28_12-56-18.323220,"81.08,80.64"
2024-05-28_12-56-18.355817,"72.97,101.06"
2024-05-28_12-56-18.384647,"90.41,77.41"
2024-05-28_12-56-18.417384,"88.16,86.99"
2024-05-28_12-56-18.450139,"94.15,64.74"
2024-05-28_12-56-18.483402,"91.94,54.29"
2024-05-28_12-56-18.515681,"85.63,56.10"
2024-05-28_12-56-18.548426,"106.19,52.32"
2024-05-28_12-56-18.581250,"93.74,53.29"
2024-05-28_12-56-18.609880,"78.17,75.54"
2024-05-28_12-56-18.642638,"74.91,95.46"
2024-05-28_12-56-18.675397,"72.54,68.84"
2024-05-28_12-56-18.708213,"73.71,80.38"
2024-05-28_12-56-18.740958,"93.91,92.99"
2024-05-28_12-56-18.773668,"95.48,86.28"
2024-05-28_12-56-18.806490,"75.56,71.82"
2024-05-28_12-56-18.835171,"102.09,52.65"
2024-05-28_12-56-18.868043,"96.99,57.38"
2024-05-28_12-56-18.900682,"79.12,48.24"
2024-05-28_12-56-18.933453,"110.50,57.51"
2024-05-28_12-56-18.966221,"72.71,57.74"
2024-05-28_12-56-18.999086,"76.85,56.36"
2024-05-28_12-56-19.031642,"70.19,56.98"
2024-05-28_12-56-19.060466,"77.59,82.41"
2024-05-28_12-56-19.093168,"77.29,97.28"
2024-05-28_12-56-19.125931,"80.90,79.56"
2024-05-28_12-56-19.158733,"87.02,83.26"
2024-05-28_12-56-19.191475,"98.12,57.70"
2024-05-28_12-56-19.224230,"93.66,53.76"
2024-05-28_12-56-19.256924,"108.95,53.82"
2024-05-28_12-56-19.289572,"105.69,51.15"
2024-05-28_12-56-19.318422,"81.81,53.66"
2024-05-28_12-56-19.351135,"65.37,61.36"
2024-05-28_12-56-19.383961,"72.72,83.19"
2024-05-28_12-56-19.416756,"68.77,95.35"
2024-05-28_12-56-19.449518,"76.78,85.40"
2024-05-28_12-56-19.482167,"75.75,96.12"
2024-05-28_12-56-19.510929,"99.93,84.37"
2024-05-28_12-56-19.543678,"78.78,56.40"
2024-05-28_12-56-19.579358,"106.45,52.47"
2024-05-28_12-56-19.609229,"87.88,58.02"
2024-05-28_12-56-19.642015,"105.16,47.09"
2024-05-28_12-56-19.674714,"98.02,58.74"
2024-05-28_12-56-19.707491,"58.18,58.58"
2024-05-28_12-56-19.740125,"66.41,79.03"
2024-05-28_12-56-19.768948,"79.57,80.59"
2024-05-28_12-56-19.801754,"85.60,89.50"
2024-05-28_12-56-19.834519,"91.37,89.85"
2024-05-28_12-56-19.867260,"78.73,83.33"
2024-05-28_12-56-19.900023,"102.21,81.99"
2024-05-28_12-56-19.932736,"103.64,57.14"
2024-05-28_12-56-19.965549,"95.20,53.70"
2024-05-28_12-56-19.994240,"83.65,55.07"
2024-05-28_12-56-20.027121,"100.24,52.69"
2024-05-28_12-56-20.059759,"71.84,55.55"
2024-05-28_12-56-20.092534,"60.96,78.00"
2024-05-28_12-56-20.125313,"77.79,93.24"
2024-05-28_12-56-20.157989,"75.16,91.26"
2024-05-28_12-56-20.190702,"78.32,83.24"
2024-05-28_12-56-20.219482,"82.46,88.92"
2024-05-28_12-56-20.252294,"105.96,87.30"
2024-05-28_12-56-20.285003,"85.67,54.66"
2024-05-28_12-56-20.317889,"107.26,53.21"
2024-05-28_12-56-20.350584,"101.13,57.44"
2024-05-28_12-56-20.383314,"105.05,47.25"
2024-05-28_12-56-20.415995,"82.61,59.99"
2024-05-28_12-56-20.444730,"59.07,58.13"
2024-05-28_12-56-20.478115,"72.44,96.06"
2024-05-28_12-56-20.510389,"79.00,91.12"
2024-05-28_12-56-20.546143,"67.01,91.97"
2024-05-28_12-56-20.575970,"77.29,101.85"
2024-05-28_12-56-20.608520,"84.93,63.31"
2024-05-28_12-56-20.641287,"92.29,55.53"
2024-05-28_12-56-20.670995,"95.54,56.65"
2024-05-28_12-56-20.702813,"85.29,53.73"
2024-05-28_12-56-20.735576,"109.08,54.38"
2024-05-28_12-56-20.768355,"82.73,53.28"
2024-05-28_12-56-20.804268,"66.87,56.79"
2024-05-28_12-56-20.833789,"69.23,100.26"
2024-05-28_12-56-20.866520,"81.21,79.88"
2024-05-28_12-56-20.895270,"79.33,95.32"
2024-05-28_12-56-20.928056,"92.42,76.40"
2024-05-28_12-56-20.960852,"93.49,84.76"
2024-05-28_12-56-20.993682,"105.38,72.88"
2024-05-28_12-56-21.026334,"84.97,54.71"
2024-05-28_12-56-21.059213,"110.06,53.41"
2024-05-28_12-56-21.091848,"95.34,57.24"
2024-05-28_12-56-21.120576,"83.05,51.28"
2024-05-28_12-56-21.153347,"73.82,62.56"
2024-05-28_12-56-21.186057,"66.63,61.58"
2024-05-28_12-56-21.218867,"73.66,83.42"
2024-05-28_12-56-21.251626,"87.61,92.33"
2024-05-28_12-56-21.284425,"82.90,88.66"
2024-05-28_12-56-21.317012,"94.44,86.12"
2024-05-28_12-56-21.345849,"95.57,54.19"
2024-05-28_12-56-21.378609,"100.39,52.60"
2024-05-28_12-56-21.411379,"83.40,58.59"
2024-05-28_12-56-21.444297,"97.56,55.36"
2024-05-28_12-56-21.476950,"87.74,56.80"
2024-05-28_12-56-21.509698,"65.14,56.01"
2024-05-28_12-56-21.542318,"65.09,62.97"
2024-05-28_12-56-21.571118,"79.96,95.67"
2024-05-28_12-56-21.603856,"90.58,83.96"
2024-05-28_12-56-21.636688,"77.79,86.18"
2024-05-28_12-56-21.669417,"86.09,78.00"
2024-05-28_12-56-21.702140,"93.38,68.53"
2024-05-28_12-56-21.736989,"104.32,57.33"
2024-05-28_12-56-21.767623,"68.55,56.74"
2024-05-28_12-56-21.796445,"82.19,57.68"
2024-05-28_12-56-21.829458,"79.60,60.22"
2024-05-28_12-56-21.861908,"73.42,60.27"
2024-05-28_12-56-21.894670,"74.30,92.59"
2024-05-28_12-56-21.927438,"79.44,82.28"
2024-05-28_12-56-21.960207,"78.78,99.10"
2024-05-28_12-56-21.992860,"90.28,88.84"
2024-05-28_12-56-22.021721,"93.48,86.82"
2024-05-28_12-56-22.054401,"88.40,61.57"
2024-05-28_12-56-22.098476,"97.49,51.88"
2024-05-28_12-56-22.120102,"72.64,56.94"
2024-05-28_12-56-22.152847,"80.83,63.51"
2024-05-28_12-56-22.185554,"68.87,57.22"
2024-05-28_12-56-22.218123,"80.73,62.27"
2024-05-28_12-56-22.246903,"70.64,67.96"
2024-05-28_12-56-22.279710,"74.74,84.62"
2024-05-28_12-56-22.312404,"79.46,93.73"
2024-05-28_12-56-22.345183,"88.97,82.55"
2024-05-28_12-56-22.377955,"73.26,82.60"
2024-05-28_12-56-22.410695,"97.72,60.51"
2024-05-28_12-56-22.443497,"100.54,47.20"
2024-05-28_12-56-22.472192,"96.79,58.15"
2024-05-28_12-56-22.504926,"79.31,57.09"
2024-05-28_12-56-22.537725,"97.89,56.66"
2024-05-28_12-56-22.570736,"72.22,62.17"
2024-05-28_12-56-22.604203,"78.72,55.09"
2024-05-28_12-56-22.637043,"71.31,77.58"
2024-05-28_12-56-22.668654,"85.43,70.38"
2024-05-28_12-56-22.705780,"67.11,94.17"
2024-05-28_12-56-22.730308,"90.75,81.34"
2024-05-28_12-56-22.762921,"82.78,76.07"
2024-05-28_12-56-22.797567,"100.48,56.07"
2024-05-28_12-56-22.828851,"94.26,52.66"
2024-05-28_12-56-22.861399,"82.76,57.09"
2024-05-28_12-56-22.893948,"88.42,60.08"
2024-05-28_12-56-22.926631,"64.16,57.72"
2024-05-28_12-56-22.955516,"66.58,78.91"
2024-05-28_12-56-22.988337,"78.76,82.78"
2024-05-28_12-56-23.020967,"76.58,82.00"
2024-05-28_12-56-23.054032,"75.79,94.90"
2024-05-28_12-56-23.086570,"75.83,82.02"
2024-05-28_12-56-23.119207,"92.25,61.61"
2024-05-28_12-56-23.151930,"87.79,59.07"
2024-05-28_12-56-23.180761,"100.31,47.20"
2024-05-28_12-56-23.213526,"83.29,58.21"
2024-05-28_12-56-23.249818,"86.95,55.29"
2024-05-28_12-56-23.279069,"77.78,56.45"
2024-05-28_12-56-23.311805,"58.99,64.59"
2024-05-28_12-56-23.344485,"80.85,86.58"
2024-05-28_12-56-23.377349,"75.82,95.46"
2024-05-28_12-56-23.406021,"88.47,79.18"
2024-05-28_12-56-23.438812,"80.08,85.92"
2024-05-28_12-56-23.471570,"102.52,76.13"
2024-05-28_12-56-23.504299,"91.67,83.53"
2024-05-28_12-56-23.537077,"98.33,52.87"
2024-05-28_12-56-23.569742,"98.20,51.77"
2024-05-28_12-56-23.602459,"95.65,53.11"
2024-05-28_12-56-23.631269,"90.94,57.61"
2024-05-28_12-56-23.664043,"64.83,56.96"
2024-05-28_12-56-23.696807,"71.94,70.70"
2024-05-28_12-56-23.729649,"79.93,78.16"
2024-05-28_12-56-23.762326,"79.77,94.27"
2024-05-28_12-56-23.795151,"90.45,88.59"
2024-05-28_12-56-23.827715,"84.95,76.39"
2024-05-28_12-56-23.856528,"93.79,82.53"
2024-05-28_12-56-23.889329,"98.71,56.99"
2024-05-28_12-56-23.922105,"98.89,46.98"
2024-05-28_12-56-23.954851,"107.65,57.26"
2024-05-28_12-56-23.987558,"67.20,56.82"
2024-05-28_12-56-24.020310,"69.32,57.54"
2024-05-28_12-56-24.053000,"67.55,88.15"
2024-05-28_12-56-24.081839,"84.21,78.58"
2024-05-28_12-56-24.114566,"87.35,91.38"
2024-05-28_12-56-24.147294,"86.45,74.83"
2024-05-28_12-56-24.180116,"86.77,80.85"
2024-05-28_12-56-24.212865,"98.01,57.31"
2024-05-28_12-56-24.251170,"94.85,53.44"
2024-05-28_12-56-24.278291,"76.30,55.77"
2024-05-28_12-56-24.307203,"99.53,52.40"
2024-05-28_12-56-24.339827,"74.96,55.58"
2024-05-28_12-56-24.372635,"62.63,74.10"
2024-05-28_12-56-24.405373,"77.45,78.72"
2024-05-28_12-56-24.438135,"77.46,89.24"
2024-05-28_12-56-24.471186,"81.85,79.36"
2024-05-28_12-56-24.503532,"90.76,85.20"
2024-05-28_12-56-24.532332,"89.19,64.20"
2024-05-28_12-56-24.565098,"85.81,54.61"
2024-05-28_12-56-24.597864,"107.36,53.44"
2024-05-28_12-56-24.630627,"97.56,56.99"
2024-05-28_12-56-24.663511,"91.92,47.58"
2024-05-28_12-56-24.696166,"80.75,62.21"
2024-05-28_12-56-24.729015,"68.96,85.34"
2024-05-28_12-56-24.757655,"75.72,80.82"
2024-05-28_12-56-24.790414,"83.71,91.29"
2024-05-28_12-56-24.823164,"93.97,82.91"
2024-05-28_12-56-24.855909,"84.95,87.08"
2024-05-28_12-56-24.888721,"92.24,69.44"
2024-05-28_12-56-24.921401,"96.64,52.26"
2024-05-28_12-56-24.954081,"108.66,57.56"
2024-05-28_12-56-24.982816,"97.36,54.28"
2024-05-28_12-56-25.015590,"89.59,54.50"
2024-05-28_12-56-25.048361,"61.94,56.65"
2024-05-28_12-56-25.081199,"63.36,59.05"
2024-05-28_12-56-25.113927,"81.11,85.08"
2024-05-28_12-56-25.146710,"94.51,80.74"
2024-05-28_12-56-25.179414,"85.08,80.52"
2024-05-28_12-56-25.208147,"77.83,77.23"
2024-05-28_12-56-25.240963,"97.69,64.49"
2024-05-28_12-56-25.273679,"112.13,56.90"
2024-05-28_12-56-25.306622,"76.24,54.13"
2024-05-28_12-56-25.339232,"93.06,54.18"
2024-05-28_12-56-25.371982,"78.69,67.36"
2024-05-28_12-56-25.404690,"79.25,71.88"
2024-05-28_12-56-25.437321,"69.01,80.02"
2024-05-28_12-56-25.466340,"77.74,90.84"
2024-05-28_12-56-25.499475,"95.01,85.96"
2024-05-28_12-56-25.531818,"71.06,85.19"
2024-05-28_12-56-25.564439,"87.51,60.02"
2024-05-28_12-56-25.597242,"96.46,69.27"
2024-05-28_12-56-25.629908,"85.72,68.31"
2024-05-28_12-56-25.662664,"86.64,52.51"
2024-05-28_12-56-25.691681,"93.21,58.28"
2024-05-28_12-56-25.724242,"62.91,57.37"
2024-05-28_12-56-25.757074,"75.75,57.51"
2024-05-28_12-56-25.789778,"81.61,78.48"
2024-05-28_12-56-25.822519,"71.08,98.37"
2024-05-28_12-56-25.855166,"81.26,92.31"
2024-05-28_12-56-25.887883,"88.04,74.92"
2024-05-28_12-56-25.916734,"84.14,80.49"
2024-05-28_12-56-25.949499,"96.43,56.69"
2024-05-28_12-56-25.982257,"97.84,47.32"
2024-05-28_12-56-26.015008,"107.99,57.26"
2024-05-28_12-56-26.047723,"66.44,56.58"
2024-05-28_12-56-26.080439,"69.67,74.30"
2024-05-28_12-56-26.113172,"83.00,73.03"
2024-05-28_12-56-26.142069,"82.33,78.24"
2024-05-28_12-56-26.174735,"87.86,91.45"
2024-05-28_12-56-26.207502,"89.68,78.72"
2024-05-28_12-56-26.240250,"97.21,83.37"
2024-05-28_12-56-26.273088,"95.37,72.37"
2024-05-28_12-56-26.305693,"94.62,53.51"
2024-05-28_12-56-26.338425,"106.82,53.83"
2024-05-28_12-56-26.367256,"99.08,52.63"
2024-05-28_12-56-26.400023,"67.12,55.94"
2024-05-28_12-56-26.432812,"63.03,55.86"
2024-05-28_12-56-26.465695,"74.17,86.10"
2024-05-28_12-56-26.498595,"71.54,93.19"
2024-05-28_12-56-26.531037,"88.19,74.15"
2024-05-28_12-56-26.563697,"96.47,85.33"
2024-05-28_12-56-26.592531,"97.36,87.26"
2024-05-28_12-56-26.625333,"86.28,54.44"
2024-05-28_12-56-26.658033,"107.14,53.85"
2024-05-28_12-56-26.690870,"97.56,57.25"
2024-05-28_12-56-26.723831,"93.17,47.65"
2024-05-28_12-56-26.756538,"77.51,60.43"
2024-05-28_12-56-26.788933,"68.63,81.61"
2024-05-28_12-56-26.817822,"73.33,90.14"
2024-05-28_12-56-26.850661,"82.96,95.60"
2024-05-28_12-56-26.883299,"77.05,90.20"
2024-05-28_12-56-26.916110,"93.87,82.94"
2024-05-28_12-56-26.948831,"90.07,53.50"
2024-05-28_12-56-26.981617,"99.91,52.14"
2024-05-28_12-56-27.014291,"107.44,57.25"
2024-05-28_12-56-27.043096,"93.81,54.20"
2024-05-28_12-56-27.076015,"85.32,54.29"
2024-05-28_12-56-27.108577,"66.89,56.66"
2024-05-28_12-56-27.144344,"73.18,68.53"
2024-05-28_12-56-27.174677,"71.01,98.88"
2024-05-28_12-56-27.207178,"98.97,78.12"
2024-05-28_12-56-27.239551,"78.41,88.20"
2024-05-28_12-56-27.268330,"82.12,76.34"
2024-05-28_12-56-27.301098,"77.88,78.20"
2024-05-28_12-56-27.333889,"97.16,56.68"
2024-05-28_12-56-27.366575,"74.24,54.59"
2024-05-28_12-56-27.399385,"100.68,54.91"
2024-05-28_12-56-27.432132,"70.06,58.18"
2024-05-28_12-56-27.464753,"75.60,79.89"
2024-05-28_12-56-27.494383,"73.71,86.37"
2024-05-28_12-56-27.526363,"76.37,84.70"
2024-05-28_12-56-27.559139,"81.91,83.04"
2024-05-28_12-56-27.591950,"88.86,84.20"
2024-05-28_12-56-27.624828,"90.24,84.05"
2024-05-28_12-56-27.657429,"90.58,69.95"
2024-05-28_12-56-27.690106,"97.82,51.80"
2024-05-28_12-56-27.722794,"104.23,53.29"
2024-05-28_12-56-27.751566,"83.95,59.65"
2024-05-28_12-56-27.784377,"62.60,59.12"
2024-05-28_12-56-27.817229,"70.90,78.52"
2024-05-28_12-56-27.849887,"78.61,79.37"
2024-05-28_12-56-27.882710,"90.63,88.53"
2024-05-28_12-56-27.915484,"101.96,80.19"
2024-05-28_12-56-27.948094,"91.68,71.35"
2024-05-28_12-56-27.976844,"105.30,52.26"
2024-05-28_12-56-28.009710,"97.46,56.62"
2024-05-28_12-56-28.042429,"96.96,47.40"
2024-05-28_12-56-28.075235,"98.18,58.21"
2024-05-28_12-56-28.108013,"60.91,56.91"
2024-05-28_12-56-28.140657,"65.46,57.54"
2024-05-28_12-56-28.173305,"80.44,87.71"
2024-05-28_12-56-28.202146,"89.58,81.44"
2024-05-28_12-56-28.234928,"81.54,87.76"
2024-05-28_12-56-28.267836,"89.20,75.55"
2024-05-28_12-56-28.300468,"96.87,68.09"
2024-05-28_12-56-28.333155,"95.24,56.67"
2024-05-28_12-56-28.365889,"84.66,53.60"
2024-05-28_12-56-28.398608,"105.46,52.87"
2024-05-28_12-56-28.427426,"74.04,53.90"
2024-05-28_12-56-28.460158,"67.13,82.21"
2024-05-28_12-56-28.492913,"82.49,78.25"
2024-05-28_12-56-28.525659,"83.24,88.23"
2024-05-28_12-56-28.558423,"85.33,80.31"
2024-05-28_12-56-28.591352,"85.10,78.80"
2024-05-28_12-56-28.623852,"92.60,64.58"
2024-05-28_12-56-28.652644,"110.76,56.72"
2024-05-28_12-56-28.685390,"74.91,54.11"
2024-05-28_12-56-28.718179,"96.65,52.79"
2024-05-28_12-56-28.750949,"91.74,56.54"
2024-05-28_12-56-28.783760,"69.16,49.71"
2024-05-28_12-56-28.816646,"72.02,100.84"
2024-05-28_12-56-28.849148,"78.52,81.22"
2024-05-28_12-56-28.877949,"84.65,93.78"
2024-05-28_12-56-28.910726,"98.93,79.64"
2024-05-28_12-56-28.943542,"88.66,85.00"
2024-05-28_12-56-28.976253,"99.20,68.33"
2024-05-28_12-56-29.009052,"98.11,51.37"
2024-05-28_12-56-29.041712,"78.77,52.50"
2024-05-28_12-56-29.074409,"105.07,56.45"
2024-05-28_12-56-29.103181,"73.80,55.63"
2024-05-28_12-56-29.135973,"68.16,80.57"
2024-05-28_12-56-29.168745,"79.04,68.69"
2024-05-28_12-56-29.201535,"86.93,89.76"
2024-05-28_12-56-29.234290,"92.37,96.17"
2024-05-28_12-56-29.266997,"77.25,82.21"
2024-05-28_12-56-29.299705,"89.77,79.23"
2024-05-28_12-56-29.328416,"84.12,72.05"
2024-05-28_12-56-29.361217,"90.23,46.53"
2024-05-28_12-56-29.394017,"111.32,56.56"
2024-05-28_12-56-29.426757,"84.05,55.21"
2024-05-28_12-56-29.459548,"77.16,55.40"
2024-05-28_12-56-29.492244,"74.73,83.71"
2024-05-28_12-56-29.524912,"77.43,81.03"
2024-05-28_12-56-29.553690,"87.33,88.26"
2024-05-28_12-56-29.586506,"83.26,79.00"
2024-05-28_12-56-29.619275,"91.87,81.86"
2024-05-28_12-56-29.651957,"91.55,71.82"
2024-05-28_12-56-29.684819,"95.58,69.71"
2024-05-28_12-56-29.717577,"109.50,53.14"
2024-05-28_12-56-29.750213,"98.40,52.08"
2024-05-28_12-56-29.779052,"70.80,55.47"
2024-05-28_12-56-29.811793,"58.95,78.08"
2024-05-28_12-56-29.844628,"77.24,91.42"
2024-05-28_12-56-29.877332,"75.56,89.40"
2024-05-28_12-56-29.910068,"78.47,77.53"
2024-05-28_12-56-29.942784,"92.56,86.55"
2024-05-28_12-56-29.975499,"100.58,86.84"
2024-05-28_12-56-30.004276,"75.32,70.40"
2024-05-28_12-56-30.037019,"109.65,52.63"
2024-05-28_12-56-30.069787,"95.23,56.83"
2024-05-28_12-56-30.102546,"91.63,46.72"
2024-05-28_12-56-30.135330,"72.12,60.77"
2024-05-28_12-56-30.168139,"67.96,75.47"
2024-05-28_12-56-30.200739,"73.70,92.01"
2024-05-28_12-56-30.229561,"88.67,86.17"
2024-05-28_12-56-30.262336,"82.19,89.46"
2024-05-28_12-56-30.295051,"99.43,79.85"
2024-05-28_12-56-30.327807,"84.48,67.98"
2024-05-28_12-56-30.360648,"90.60,68.34"
2024-05-28_12-56-30.393380,"104.60,56.43"
2024-05-28_12-56-30.426087,"92.06,54.64"
2024-05-28_12-56-30.454825,"77.08,55.14"
2024-05-28_12-56-30.487581,"74.37,74.61"
2024-05-28_12-56-30.520378,"82.23,72.20"
2024-05-28_12-56-30.553083,"78.50,96.95"
2024-05-28_12-56-30.586199,"90.33,78.56"
2024-05-28_12-56-30.618681,"81.32,87.51"
2024-05-28_12-56-30.651364,"96.53,59.08"
2024-05-28_12-56-30.680039,"99.52,46.73"
2024-05-28_12-56-30.712860,"103.20,56.42"
2024-05-28_12-56-30.745700,"88.46,54.09"
2024-05-28_12-56-30.778393,"82.66,54.44"
2024-05-28_12-56-30.811171,"59.25,57.15"
2024-05-28_12-56-30.843929,"81.21,67.38"
2024-05-28_12-56-30.876623,"69.20,90.05"
2024-05-28_12-56-30.909258,"89.84,78.06"
2024-05-28_12-56-30.938090,"92.44,80.52"
2024-05-28_12-56-30.970930,"100.68,71.37"
2024-05-28_12-56-31.003687,"95.38,70.07"
2024-05-28_12-56-31.036406,"109.66,53.28"
2024-05-28_12-56-31.069150,"97.87,51.51"
2024-05-28_12-56-31.101837,"73.94,54.53"
2024-05-28_12-56-31.134582,"60.44,78.07"
2024-05-28_12-56-31.163369,"77.63,89.98"
2024-05-28_12-56-31.196084,"85.62,84.00"
2024-05-28_12-56-31.228888,"79.76,79.79"
2024-05-28_12-56-31.261686,"100.77,80.52"
2024-05-28_12-56-31.294421,"99.79,73.57"
2024-05-28_12-56-31.327131,"87.53,54.19"
2024-05-28_12-56-31.359818,"87.73,52.45"
2024-05-28_12-56-31.388634,"98.43,56.21"
2024-05-28_12-56-31.421375,"80.50,47.84"
2024-05-28_12-56-31.454110,"65.66,77.73"
2024-05-28_12-56-31.486878,"75.47,60.79"
2024-05-28_12-56-31.519708,"85.05,86.12"
2024-05-28_12-56-31.552530,"86.45,87.05"
2024-05-28_12-56-31.585105,"86.30,86.94"
2024-05-28_12-56-31.613893,"101.60,79.66"
2024-05-28_12-56-31.646624,"85.96,68.09"
2024-05-28_12-56-31.679447,"101.40,52.33"
2024-05-28_12-56-31.712188,"108.42,57.27"
2024-05-28_12-56-31.744962,"76.53,55.66"
2024-05-28_12-56-31.777894,"69.52,56.82"
2024-05-28_12-56-31.810327,"78.45,58.46"
2024-05-28_12-56-31.839206,"89.40,86.43"
2024-05-28_12-56-31.871902,"99.64,85.04"
2024-05-28_12-56-31.904701,"78.40,77.88"
2024-05-28_12-56-31.937463,"101.76,79.71"
2024-05-28_12-56-31.970187,"85.20,72.38"
2024-05-28_12-56-32.002928,"100.14,46.46"
2024-05-28_12-56-32.038572,"107.71,56.84"
2024-05-28_12-56-32.076616,"74.66,55.99"
2024-05-28_12-56-32.097975,"73.96,58.45"
2024-05-28_12-56-32.130929,"85.15,58.84"
2024-05-28_12-56-32.163683,"75.39,79.35"
2024-05-28_12-56-32.196410,"77.84,95.89"
2024-05-28_12-56-32.229277,"76.91,86.63"
2024-05-28_12-56-32.260879,"92.34,72.80"
2024-05-28_12-56-32.289713,"93.97,56.65"
2024-05-28_12-56-32.322502,"84.35,70.08"
2024-05-28_12-56-32.356658,"103.63,53.31"
2024-05-28_12-56-32.388114,"81.37,53.56"
2024-05-28_12-56-32.420778,"66.14,56.37"
2024-05-28_12-56-32.453459,"69.31,99.74"
2024-05-28_12-56-32.486238,"83.59,79.59"
2024-05-28_12-56-32.515095,"90.76,85.09"
2024-05-28_12-56-32.547721,"76.25,79.91"
2024-05-28_12-56-32.580531,"94.64,77.98"
2024-05-28_12-56-32.613432,"109.38,56.84"
2024-05-28_12-56-32.646074,"88.04,54.56"
2024-05-28_12-56-32.682222,"92.81,54.48"
2024-05-28_12-56-32.711572,"81.26,58.36"
2024-05-28_12-56-32.740354,"72.23,50.85"
2024-05-28_12-56-32.773110,"73.48,76.52"
2024-05-28_12-56-32.805811,"76.39,81.30"
2024-05-28_12-56-32.844991,"99.49,82.94"
2024-05-28_12-56-32.880738,"77.91,81.76"
2024-05-28_12-56-32.907282,"88.29,60.11"
2024-05-28_12-56-32.936941,"94.87,56.62"
2024-05-28_12-56-32.967971,"98.63,51.55"
2024-05-28_12-56-32.998266,"103.32,53.90"
2024-05-28_12-56-33.031068,"80.28,60.48"
2024-05-28_12-56-33.065676,"64.90,57.63"
2024-05-28_12-56-33.096616,"72.43,76.23"
2024-05-28_12-56-33.131417,"75.06,87.28"
2024-05-28_12-56-33.162037,"86.00,94.38"
2024-05-28_12-56-33.190801,"90.38,85.44"
2024-05-28_12-56-33.223547,"87.35,58.30"
2024-05-28_12-56-33.256360,"102.96,52.97"
2024-05-28_12-56-33.289064,"97.51,56.87"
2024-05-28_12-56-33.321833,"91.55,46.27"
2024-05-28_12-56-33.354651,"84.69,59.14"
2024-05-28_12-56-33.387283,"55.56,58.94"
2024-05-28_12-56-33.419975,"70.33,93.54"
2024-05-28_12-56-33.448746,"88.37,84.31"
2024-05-28_12-56-33.481607,"94.28,80.13"
2024-05-28_12-56-33.514283,"95.62,82.44"
2024-05-28_12-56-33.547072,"90.30,69.01"
2024-05-28_12-56-33.579824,"90.65,68.26"
2024-05-28_12-56-33.612762,"96.46,56.84"
2024-05-28_12-56-33.645840,"91.58,54.56"
2024-05-28_12-56-33.674160,"82.30,56.31"
2024-05-28_12-56-33.706880,"64.69,55.70"
2024-05-28_12-56-33.739678,"73.56,80.54"
2024-05-28_12-56-33.772381,"83.24,90.83"
2024-05-28_12-56-33.805179,"92.75,76.74"
2024-05-28_12-56-33.838024,"91.19,81.88"
2024-05-28_12-56-33.870596,"86.72,58.14"
2024-05-28_12-56-33.899399,"92.58,47.34"
2024-05-28_12-56-33.932085,"113.84,56.88"
2024-05-28_12-56-33.964887,"87.66,54.73"
2024-05-28_12-56-33.997677,"77.84,55.43"
2024-05-28_12-56-34.030432,"60.52,69.42"
2024-05-28_12-56-34.063213,"78.05,86.42"
2024-05-28_12-56-34.095878,"79.17,93.17"
2024-05-28_12-56-34.135000,"91.87,79.24"
2024-05-28_12-56-34.157423,"70.36,79.53"
2024-05-28_12-56-34.190569,"99.62,61.35"
2024-05-28_12-56-34.222951,"86.44,55.24"
2024-05-28_12-56-34.255745,"83.52,56.83"
2024-05-28_12-56-34.288423,"94.03,53.55"
2024-05-28_12-56-34.321130,"71.52,58.22"
2024-05-28_12-56-34.349970,"63.95,75.35"
2024-05-28_12-56-34.382657,"81.82,79.08"
2024-05-28_12-56-34.415467,"80.67,88.88"
2024-05-28_12-56-34.448131,"82.29,78.50"
2024-05-28_12-56-34.480898,"104.16,80.73"
2024-05-28_12-56-34.513663,"105.70,85.14"
2024-05-28_12-56-34.546344,"88.30,54.20"
2024-05-28_12-56-34.575224,"98.56,53.07"
2024-05-28_12-56-34.607960,"92.58,56.71"
2024-05-28_12-56-34.640714,"71.66,49.13"
2024-05-28_12-56-34.673421,"63.63,60.52"
2024-05-28_12-56-34.706215,"78.93,81.38"
2024-05-28_12-56-34.738930,"83.94,94.40"
2024-05-28_12-56-34.771612,"93.99,77.35"
2024-05-28_12-56-34.800347,"92.56,81.17"
2024-05-28_12-56-34.833132,"96.48,81.42"
2024-05-28_12-56-34.865899,"97.76,51.31"
2024-05-28_12-56-34.898676,"89.78,52.79"
2024-05-28_12-56-34.931422,"94.10,57.83"
2024-05-28_12-56-34.964294,"62.50,58.95"
2024-05-28_12-56-34.996889,"71.93,96.43"
2024-05-28_12-56-35.025706,"77.94,79.74"
2024-05-28_12-56-35.058648,"95.00,91.38"
2024-05-28_12-56-35.091599,"96.28,81.88"
2024-05-28_12-56-35.123999,"88.79,73.85"
2024-05-28_12-56-35.156864,"103.06,52.65"
2024-05-28_12-56-35.189471,"98.84,56.83"
2024-05-28_12-56-35.222187,"103.88,46.64"
2024-05-28_12-56-35.250899,"88.84,57.75"
2024-05-28_12-56-35.283730,"55.40,59.71"
2024-05-28_12-56-35.316472,"72.06,94.26"
2024-05-28_12-56-35.349280,"84.83,84.75"
2024-05-28_12-56-35.381953,"94.21,82.94"
2024-05-28_12-56-35.414736,"105.27,82.12"
2024-05-28_12-56-35.447402,"82.29,69.51"
2024-05-28_12-56-35.476180,"90.51,69.03"
2024-05-28_12-56-35.509085,"107.76,56.99"
2024-05-28_12-56-35.541781,"101.52,54.74"
2024-05-28_12-56-35.574535,"77.50,56.95"
2024-05-28_12-56-35.607330,"62.34,57.70"
2024-05-28_12-56-35.639991,"78.25,76.43"
2024-05-28_12-56-35.672712,"85.25,96.26"
2024-05-28_12-56-35.701446,"94.20,79.95"
2024-05-28_12-56-35.734283,"89.25,80.13"
2024-05-28_12-56-35.767064,"95.64,72.58"
2024-05-28_12-56-35.799780,"97.26,46.86"
2024-05-28_12-56-35.832568,"110.82,57.63"
2024-05-28_12-56-35.865304,"83.85,56.02"
2024-05-28_12-56-35.897982,"74.15,57.27"
2024-05-28_12-56-35.926691,"72.23,95.88"
2024-05-28_12-56-35.959681,"83.61,79.75"
2024-05-28_12-56-35.992285,"80.57,94.26"
2024-05-28_12-56-36.025135,"86.69,76.14"
2024-05-28_12-56-36.057913,"91.04,82.22"
2024-05-28_12-56-36.090750,"104.54,57.32"
2024-05-28_12-56-36.123286,"95.58,53.78"
2024-05-28_12-56-36.155942,"105.04,54.01"
2024-05-28_12-56-36.184804,"84.54,53.94"
2024-05-28_12-56-36.217529,"65.79,57.07"
2024-05-28_12-56-36.250884,"74.00,88.19"
2024-05-28_12-56-36.286313,"73.60,77.88"
2024-05-28_12-56-36.315891,"79.33,82.28"
2024-05-28_12-56-36.348552,"88.16,86.63"
2024-05-28_12-56-36.377277,"82.44,77.65"
2024-05-28_12-56-36.410090,"102.88,72.16"
2024-05-28_12-56-36.442769,"89.20,54.44"
2024-05-28_12-56-36.475556,"109.45,53.48"
2024-05-28_12-56-36.508294,"74.87,57.99"
2024-05-28_12-56-36.541083,"79.37,52.72"
2024-05-28_12-56-36.573784,"74.19,80.28"
2024-05-28_12-56-36.606598,"84.14,84.65"
2024-05-28_12-56-36.635458,"87.50,80.27"
2024-05-28_12-56-36.668066,"93.92,70.43"
2024-05-28_12-56-36.700815,"95.85,82.21"
2024-05-28_12-56-36.733563,"98.46,52.66"
2024-05-28_12-56-36.766334,"106.28,51.98"
2024-05-28_12-56-36.799072,"86.94,53.93"
2024-05-28_12-56-36.831753,"63.01,62.78"
2024-05-28_12-56-36.879307,"69.22,60.52"
2024-05-28_12-56-36.901467,"74.49,93.17"
2024-05-28_12-56-36.928011,"75.10,81.47"
2024-05-28_12-56-36.984616,"89.79,85.77"
2024-05-28_12-56-36.992097,"85.14,66.84"
2024-05-28_12-56-37.024375,"80.26,56.82"
2024-05-28_12-56-37.057053,"106.70,54.43"
2024-05-28_12-56-37.085969,"97.35,56.62"
2024-05-28_12-56-37.118631,"76.65,49.34"
2024-05-28_12-56-37.151358,"66.24,82.39"
2024-05-28_12-56-37.184141,"73.07,83.42"
2024-05-28_12-56-37.216840,"85.79,86.21"
2024-05-28_12-56-37.249623,"102.09,78.36"
2024-05-28_12-56-37.282347,"93.30,82.51"
2024-05-28_12-56-37.311056,"94.14,80.50"
2024-05-28_12-56-37.343839,"95.85,51.49"
2024-05-28_12-56-37.376584,"101.43,52.53"
2024-05-28_12-56-37.409370,"96.11,56.91"
2024-05-28_12-56-37.442156,"65.44,58.16"
2024-05-28_12-56-37.476298,"61.73,55.89"
2024-05-28_12-56-37.507596,"75.70,78.94"
2024-05-28_12-56-37.536349,"87.00,94.97"
2024-05-28_12-56-37.569109,"100.85,88.97"
2024-05-28_12-56-37.601870,"77.27,72.22"
2024-05-28_12-56-37.634726,"106.40,68.66"
2024-05-28_12-56-37.667420,"97.47,57.00"
2024-05-28_12-56-37.700163,"104.12,46.75"
2024-05-28_12-56-37.732850,"86.24,59.36"
2024-05-28_12-56-37.761609,"55.76,59.90"
2024-05-28_12-56-37.794381,"71.29,80.59"
2024-05-28_12-56-37.827538,"88.15,83.30"
2024-05-28_12-56-37.859975,"81.29,89.41"
2024-05-28_12-56-37.892706,"94.57,83.23"
2024-05-28_12-56-37.925428,"95.32,69.06"
2024-05-28_12-56-37.958141,"91.31,51.97"
2024-05-28_12-56-37.986864,"104.70,56.81"
2024-05-28_12-56-38.019992,"86.06,55.54"
2024-05-28_12-56-38.052754,"76.22,54.96"
2024-05-28_12-56-38.085243,"72.01,66.97"
2024-05-28_12-56-38.117968,"81.12,82.02"
2024-05-28_12-56-38.150706,"101.19,96.76"
2024-05-28_12-56-38.183489,"78.98,76.96"
2024-05-28_12-56-38.212221,"101.57,80.71"
2024-05-28_12-56-38.244951,"98.43,57.02"
2024-05-28_12-56-38.277804,"99.53,47.36"
2024-05-28_12-56-38.310587,"98.37,58.18"
2024-05-28_12-56-38.343239,"67.84,57.35"
2024-05-28_12-56-38.376073,"68.15,80.21"
2024-05-28_12-56-38.408658,"80.68,89.15"
2024-05-28_12-56-38.437438,"89.50,82.12"
2024-05-28_12-56-38.470214,"95.69,87.52"
2024-05-28_12-56-38.502976,"86.45,73.85"
2024-05-28_12-56-38.535802,"97.36,68.23"
2024-05-28_12-56-38.568675,"108.43,57.66"
2024-05-28_12-56-38.601304,"101.76,54.24"
2024-05-28_12-56-38.633949,"92.51,54.83"
2024-05-28_12-56-38.662765,"64.46,56.47"
2024-05-28_12-56-38.695574,"74.08,88.79"
2024-05-28_12-56-38.728297,"81.48,93.88"
2024-05-28_12-56-38.761031,"91.75,78.93"
2024-05-28_12-56-38.793805,"83.74,85.83"
2024-05-28_12-56-38.826593,"88.38,73.53"
2024-05-28_12-56-38.859314,"78.89,64.91"
2024-05-28_12-56-38.887976,"103.53,56.69"
2024-05-28_12-56-38.920758,"92.48,54.91"
2024-05-28_12-56-38.953501,"74.73,55.77"
2024-05-28_12-56-38.986311,"75.24,62.89"
2024-05-28_12-56-39.019091,"82.55,75.80"
2024-05-28_12-56-39.055129,"85.09,93.25"
2024-05-28_12-56-39.084607,"88.35,77.54"
2024-05-28_12-56-39.113225,"87.54,83.91"
2024-05-28_12-56-39.146446,"84.50,72.11"
2024-05-28_12-56-39.178801,"85.56,53.74"
2024-05-28_12-56-39.211542,"107.89,53.38"
2024-05-28_12-56-39.244697,"76.72,54.29"
2024-05-28_12-56-39.277107,"66.46,56.42"
2024-05-28_12-56-39.309799,"84.71,98.16"
2024-05-28_12-56-39.338558,"82.45,85.49"
2024-05-28_12-56-39.371278,"88.75,83.03"
2024-05-28_12-56-39.404008,"94.92,73.75"
2024-05-28_12-56-39.436811,"97.78,65.81"
2024-05-28_12-56-39.469540,"94.54,57.06"
2024-05-28_12-56-39.502321,"88.00,55.26"
2024-05-28_12-56-39.535033,"94.55,55.11"
2024-05-28_12-56-39.567756,"62.97,60.97"
2024-05-28_12-56-39.596617,"83.88,62.32"
2024-05-28_12-56-39.629291,"78.39,95.62"
2024-05-28_12-56-39.662097,"91.28,79.50"
2024-05-28_12-56-39.694787,"94.52,84.85"
2024-05-28_12-56-39.727584,"100.37,73.22"
2024-05-28_12-56-39.760300,"86.17,70.39"
2024-05-28_12-56-39.793029,"110.50,54.03"
2024-05-28_12-56-39.821803,"94.74,53.08"
2024-05-28_12-56-39.854540,"72.41,55.88"
2024-05-28_12-56-39.887380,"74.81,63.74"
2024-05-28_12-56-39.920250,"82.25,83.41"
2024-05-28_12-56-39.952857,"69.23,95.14"
2024-05-28_12-56-39.985629,"68.08,87.26"
2024-05-28_12-56-40.019399,"95.64,83.56"
2024-05-28_12-56-40.047068,"96.79,61.94"
2024-05-28_12-56-40.079874,"82.77,58.37"
2024-05-28_12-56-40.112635,"86.64,58.13"
2024-05-28_12-56-40.145381,"82.67,58.60"
2024-05-28_12-56-40.178123,"70.00,53.83"
2024-05-28_12-56-40.210811,"70.98,93.57"
2024-05-28_12-56-40.243538,"78.16,84.33"
2024-05-28_12-56-40.272331,"82.55,85.74"
2024-05-28_12-56-40.305097,"90.92,77.14"
2024-05-28_12-56-40.337862,"91.42,70.91"
2024-05-28_12-56-40.370614,"108.55,54.43"
2024-05-28_12-56-40.403355,"99.42,52.38"
2024-05-28_12-56-40.436121,"87.70,54.62"
2024-05-28_12-56-40.468840,"69.33,63.37"
2024-05-28_12-56-40.497992,"81.58,77.48"
2024-05-28_12-56-40.530392,"79.64,90.38"
2024-05-28_12-56-40.566237,"75.33,83.56"
2024-05-28_12-56-40.595996,"91.13,88.23"
2024-05-28_12-56-40.628787,"106.01,59.60"
2024-05-28_12-56-40.661540,"88.62,54.72"
2024-05-28_12-56-40.694123,"98.02,55.25"
2024-05-28_12-56-40.722978,"90.27,58.46"
2024-05-28_12-56-40.755705,"69.87,51.69"
2024-05-28_12-56-40.788633,"74.81,94.19"
2024-05-28_12-56-40.821187,"76.32,85.24"
2024-05-28_12-56-40.853960,"89.81,89.55"
2024-05-28_12-56-40.886677,"100.78,84.07"
2024-05-28_12-56-40.919371,"82.07,82.66"
2024-05-28_12-56-40.948101,"98.07,52.74"
2024-05-28_12-56-40.980891,"100.59,52.50"
2024-05-28_12-56-41.013630,"95.80,54.75"
2024-05-28_12-56-41.046394,"83.56,61.07"
2024-05-28_12-56-41.079414,"63.87,59.56"
2024-05-28_12-56-41.111928,"73.32,72.35"
2024-05-28_12-56-41.144799,"72.85,82.63"
2024-05-28_12-56-41.173480,"76.63,84.48"
2024-05-28_12-56-41.206277,"97.50,81.82"
2024-05-28_12-56-41.238946,"78.41,57.37"
2024-05-28_12-56-41.271732,"101.15,55.69"
2024-05-28_12-56-41.304461,"97.96,56.96"
2024-05-28_12-56-41.337178,"90.96,47.39"
2024-05-28_12-56-41.370599,"80.19,59.35"
2024-05-28_12-56-41.410123,"64.71,60.19"
2024-05-28_12-56-41.431990,"73.22,93.74"
2024-05-28_12-56-41.464657,"73.34,93.13"
2024-05-28_12-56-41.497280,"75.32,92.37"
2024-05-28_12-56-41.530044,"91.38,71.78"
2024-05-28_12-56-41.562631,"97.32,51.66"
2024-05-28_12-56-41.595221,"89.32,53.28"
2024-05-28_12-56-41.623958,"104.33,56.21"
2024-05-28_12-56-41.656728,"68.29,56.65"
2024-05-28_12-56-41.689480,"64.21,77.69"
2024-05-28_12-56-41.722195,"74.06,79.49"
2024-05-28_12-56-41.755070,"96.69,85.38"
2024-05-28_12-56-41.787805,"95.21,90.20"
2024-05-28_12-56-41.821621,"85.00,73.45"
2024-05-28_12-56-41.849242,"90.23,56.72"
2024-05-28_12-56-41.882034,"98.18,57.61"
2024-05-28_12-56-41.914875,"102.29,46.52"
2024-05-28_12-56-41.947512,"82.95,58.87"
2024-05-28_12-56-41.980313,"56.77,58.86"
2024-05-28_12-56-42.012997,"76.83,79.27"
2024-05-28_12-56-42.045735,"88.35,88.42"
2024-05-28_12-56-42.078474,"87.19,85.55"
2024-05-28_12-56-42.107194,"100.44,80.52"
2024-05-28_12-56-42.140037,"95.83,68.74"
2024-05-28_12-56-42.172812,"102.15,52.29"
2024-05-28_12-56-42.205573,"102.95,56.90"
2024-05-28_12-56-42.238971,"79.06,55.12"
2024-05-28_12-56-42.271019,"68.66,57.59"
2024-05-28_12-56-42.303702,"78.09,58.86"
2024-05-28_12-56-42.332527,"95.72,85.11"
2024-05-28_12-56-42.365392,"81.66,92.28"
2024-05-28_12-56-42.401008,"87.99,81.05"
2024-05-28_12-56-42.430852,"86.39,59.65"
2024-05-28_12-56-42.463609,"97.77,57.23"
2024-05-28_12-56-42.496278,"104.69,47.57"
2024-05-28_12-56-42.529001,"104.01,56.70"
2024-05-28_12-56-42.559264,"59.14,57.73"
2024-05-28_12-56-42.590619,"63.62,61.71"
2024-05-28_12-56-42.623580,"78.93,92.22"
2024-05-28_12-56-42.656361,"69.06,87.54"
2024-05-28_12-56-42.689049,"89.36,94.75"
2024-05-28_12-56-42.725128,"91.01,71.43"
2024-05-28_12-56-42.754289,"90.88,54.24"
2024-05-28_12-56-42.783088,"108.12,57.42"
2024-05-28_12-56-42.816085,"97.07,54.24"
2024-05-28_12-56-42.848675,"88.53,54.24"
2024-05-28_12-56-42.881415,"66.79,55.10"
2024-05-28_12-56-42.914085,"73.39,96.12"
2024-05-28_12-56-42.947066,"88.75,89.36"
2024-05-28_12-56-42.979564,"94.86,79.12"
2024-05-28_12-56-43.008270,"97.29,80.08"
2024-05-28_12-56-43.041050,"93.17,72.29"
2024-05-28_12-56-43.073861,"100.18,46.55"
2024-05-28_12-56-43.106721,"111.89,56.86"
2024-05-28_12-56-43.139407,"93.28,55.36"
2024-05-28_12-56-43.172097,"78.88,55.51"
2024-05-28_12-56-43.204775,"71.75,77.09"
2024-05-28_12-56-43.233587,"87.41,72.41"
2024-05-28_12-56-43.266387,"97.17,90.97"
2024-05-28_12-56-43.299114,"80.09,77.25"
2024-05-28_12-56-43.331850,"94.68,80.09"
2024-05-28_12-56-43.364792,"95.99,71.33"
2024-05-28_12-56-43.397386,"84.16,53.40"
2024-05-28_12-56-43.430071,"110.49,53.08"
2024-05-28_12-56-43.458843,"78.10,53.67"
2024-05-28_12-56-43.491569,"66.65,55.92"
2024-05-28_12-56-43.524373,"84.53,86.35"
2024-05-28_12-56-43.557288,"81.24,84.45"
2024-05-28_12-56-43.589964,"89.03,78.46"
2024-05-28_12-56-43.622602,"91.37,71.80"
2024-05-28_12-56-43.655357,"76.98,76.99"
2024-05-28_12-56-43.684093,"102.70,71.91"
2024-05-28_12-56-43.716898,"76.07,54.38"
2024-05-28_12-56-43.749681,"101.23,53.24"
2024-05-28_12-56-43.782521,"68.23,59.06"
2024-05-28_12-56-43.815228,"75.90,50.17"
2024-05-28_12-56-43.847972,"70.46,97.85"
2024-05-28_12-56-43.880671,"92.81,87.40"
2024-05-28_12-56-43.909544,"88.16,82.80"
2024-05-28_12-56-43.942232,"92.04,75.54"
2024-05-28_12-56-43.974889,"93.74,70.22"
2024-05-28_12-56-44.007737,"87.98,53.19"
2024-05-28_12-56-44.040506,"104.63,51.70"
2024-05-28_12-56-44.076871,"79.38,54.10"
2024-05-28_12-56-44.106069,"68.13,73.11"
2024-05-28_12-56-44.134727,"78.01,71.13"
2024-05-28_12-56-44.167587,"69.61,85.53"
2024-05-28_12-56-44.200229,"91.24,73.84"
2024-05-28_12-56-44.233109,"102.23,80.01"
2024-05-28_12-56-44.265747,"107.81,72.04"
2024-05-28_12-56-44.298435,"89.23,54.56"
2024-05-28_12-56-44.331173,"108.05,53.95"
2024-05-28_12-56-44.360005,"96.24,56.62"
2024-05-28_12-56-44.392717,"69.27,50.86"
2024-05-28_12-56-44.425619,"70.99,96.10"
2024-05-28_12-56-44.458316,"78.22,81.05"
2024-05-28_12-56-44.491057,"91.96,85.30"
2024-05-28_12-56-44.523763,"84.96,82.73"
2024-05-28_12-56-44.556453,"98.64,82.98"
2024-05-28_12-56-44.586709,"106.34,52.59"
2024-05-28_12-56-44.617973,"98.90,51.27"
2024-05-28_12-56-44.650737,"100.28,53.78"
2024-05-28_12-56-44.683565,"79.63,60.09"
2024-05-28_12-56-44.716264,"76.59,59.41"
2024-05-28_12-56-44.748973,"73.47,87.39"
2024-05-28_12-56-44.781690,"76.03,81.89"
2024-05-28_12-56-44.810574,"86.01,79.88"
2024-05-28_12-56-44.843445,"104.26,86.51"
2024-05-28_12-56-44.876090,"86.62,55.04"
2024-05-28_12-56-44.908777,"108.10,53.29"
2024-05-28_12-56-44.941652,"97.35,56.79"
2024-05-28_12-56-44.974330,"91.00,47.06"
2024-05-28_12-56-45.007017,"69.94,61.58"
2024-05-28_12-56-45.035745,"77.34,60.96"
2024-05-28_12-56-45.068545,"82.74,88.66"
2024-05-28_12-56-45.101294,"81.15,86.88"
2024-05-28_12-56-45.134022,"86.33,83.92"
2024-05-28_12-56-45.166947,"100.22,68.47"
2024-05-28_12-56-45.199564,"94.79,51.75"
2024-05-28_12-56-45.232252,"99.28,53.63"
2024-05-28_12-56-45.264935,"102.66,56.58"
2024-05-28_12-56-45.293788,"70.51,57.02"
2024-05-28_12-56-45.326611,"64.06,57.65"
2024-05-28_12-56-45.359347,"74.11,80.36"
2024-05-28_12-56-45.392104,"88.86,97.06"
2024-05-28_12-56-45.424916,"91.13,92.02"
2024-05-28_12-56-45.457697,"74.55,77.27"
2024-05-28_12-56-45.486514,"95.51,55.05"
2024-05-28_12-56-45.519023,"98.51,57.73"
2024-05-28_12-56-45.551823,"105.32,47.32"
2024-05-28_12-56-45.584742,"95.65,58.59"
2024-05-28_12-56-45.617325,"60.01,57.23"
2024-05-28_12-56-45.650106,"84.62,89.50"
2024-05-28_12-56-45.682762,"78.60,90.76"
2024-05-28_12-56-45.715436,"87.01,85.56"
2024-05-28_12-56-45.744293,"82.63,89.77"
2024-05-28_12-56-45.777116,"95.01,55.80"
2024-05-28_12-56-45.811527,"85.98,55.60"
2024-05-28_12-56-45.846992,"96.00,58.09"
2024-05-28_12-56-45.876448,"86.32,55.38"
2024-05-28_12-56-45.908236,"76.11,55.97"
2024-05-28_12-56-45.941055,"76.74,56.02"
2024-05-28_12-56-45.969572,"78.86,74.16"
2024-05-28_12-56-46.002957,"78.06,95.43"
2024-05-28_12-56-46.035184,"76.09,81.05"
2024-05-28_12-56-46.067859,"94.22,85.42"
2024-05-28_12-56-46.100647,"82.63,72.00"
2024-05-28_12-56-46.133439,"82.25,46.98"
2024-05-28_12-56-46.166022,"87.94,59.54"
2024-05-28_12-56-46.195002,"79.77,56.83"
2024-05-28_12-56-46.227569,"73.69,58.14"
2024-05-28_12-56-46.260556,"71.18,72.94"
2024-05-28_12-56-46.293088,"77.05,91.66"
2024-05-28_12-56-46.325995,"83.93,91.84"
2024-05-28_12-56-46.358756,"80.86,76.52"
2024-05-28_12-56-46.391407,"98.41,84.42"
2024-05-28_12-56-46.420238,"105.23,57.04"
2024-05-28_12-56-46.452864,"74.91,54.23"
2024-05-28_12-56-46.485715,"106.43,54.93"
2024-05-28_12-56-46.518388,"73.31,54.68"
2024-05-28_12-56-46.551182,"64.97,73.71"
2024-05-28_12-56-46.583868,"82.95,94.12"
2024-05-28_12-56-46.616559,"90.64,82.49"
2024-05-28_12-56-46.645345,"77.67,85.43"
2024-05-28_12-56-46.678208,"98.36,77.20"
2024-05-28_12-56-46.710908,"97.17,65.44"
2024-05-28_12-56-46.744111,"112.96,56.67"
2024-05-28_12-56-46.776418,"89.15,54.36"
2024-05-28_12-56-46.809127,"98.17,53.95"
2024-05-28_12-56-46.841847,"62.57,59.20"
2024-05-28_12-56-46.870618,"84.02,53.29"
2024-05-28_12-56-46.903446,"80.73,92.31"
2024-05-28_12-56-46.936096,"80.67,80.53"
2024-05-28_12-56-46.968870,"95.54,79.50"
2024-05-28_12-56-47.001657,"94.80,71.79"
2024-05-28_12-56-47.034407,"83.63,83.22"
2024-05-28_12-56-47.067140,"88.25,52.74"
2024-05-28_12-56-47.095858,"99.05,51.97"
2024-05-28_12-56-47.128684,"78.76,53.95"
2024-05-28_12-56-47.161534,"64.58,55.85"
2024-05-28_12-56-47.194270,"74.66,86.68"
2024-05-28_12-56-47.227181,"70.83,96.36"
2024-05-28_12-56-47.259711,"73.76,77.86"
2024-05-28_12-56-47.292449,"88.35,82.38"
2024-05-28_12-56-47.321182,"97.75,84.75"
2024-05-28_12-56-47.353936,"87.90,54.38"
2024-05-28_12-56-47.386674,"108.44,53.28"
2024-05-28_12-56-47.419489,"101.41,56.71"
2024-05-28_12-56-47.452182,"70.93,49.46"
2024-05-28_12-56-47.485006,"60.44,63.38"
2024-05-28_12-56-47.517654,"78.46,78.64"
2024-05-28_12-56-47.546393,"87.61,90.31"
2024-05-28_12-56-47.579169,"94.63,84.26"
2024-05-28_12-56-47.611900,"92.29,81.64"
2024-05-28_12-56-47.644713,"86.21,67.92"
2024-05-28_12-56-47.677535,"87.20,51.64"
2024-05-28_12-56-47.710501,"97.47,52.80"
2024-05-28_12-56-47.743102,"90.11,59.18"
2024-05-28_12-56-47.771735,"62.92,57.98"
2024-05-28_12-56-47.804561,"69.81,79.91"
2024-05-28_12-56-47.837606,"77.54,89.93"
2024-05-28_12-56-47.870082,"90.18,92.64"
2024-05-28_12-56-47.902800,"105.32,83.54"
2024-05-28_12-56-47.935547,"81.88,71.58"
2024-05-28_12-56-47.968227,"105.11,52.47"
2024-05-28_12-56-47.996962,"99.23,56.98"
2024-05-28_12-56-48.029740,"99.70,46.60"
2024-05-28_12-56-48.062559,"80.50,59.67"
2024-05-28_12-56-48.095301,"56.55,58.80"
2024-05-28_12-56-48.128363,"75.89,79.50"
2024-05-28_12-56-48.160827,"92.16,86.12"
2024-05-28_12-56-48.193551,"87.90,89.57"
2024-05-28_12-56-48.222319,"97.49,80.62"
2024-05-28_12-56-48.255069,"96.14,52.24"
2024-05-28_12-56-48.287799,"100.84,53.17"
2024-05-28_12-56-48.320541,"104.89,56.64"
2024-05-28_12-56-48.353297,"83.69,55.84"
2024-05-28_12-56-48.386108,"73.92,56.04"
2024-05-28_12-56-48.418795,"65.83,61.27"
2024-05-28_12-56-48.451454,"86.58,89.19"
2024-05-28_12-56-48.480282,"85.90,89.24"
2024-05-28_12-56-48.513119,"82.53,80.92"
2024-05-28_12-56-48.545853,"100.19,80.31"
2024-05-28_12-56-48.578562,"94.39,56.91"
2024-05-28_12-56-48.611330,"98.47,47.05"
2024-05-28_12-56-48.644187,"105.71,56.23"
2024-05-28_12-56-48.676769,"63.86,56.06"
2024-05-28_12-56-48.705550,"66.39,82.23"
2024-05-28_12-56-48.738303,"80.62,88.40"
2024-05-28_12-56-48.771476,"86.72,91.81"
2024-05-28_12-56-48.803864,"95.56,85.10"
2024-05-28_12-56-48.836622,"84.28,73.59"
2024-05-28_12-56-48.870327,"97.38,68.50"
2024-05-28_12-56-48.902099,"89.44,57.41"
2024-05-28_12-56-48.930811,"79.86,55.06"
2024-05-28_12-56-48.963601,"74.71,57.27"
2024-05-28_12-56-48.996319,"62.11,56.79"
2024-05-28_12-56-49.029082,"77.39,58.21"
2024-05-28_12-56-49.061895,"85.91,91.09"
2024-05-28_12-56-49.094663,"78.91,80.63"
2024-05-28_12-56-49.127320,"97.15,80.77"
2024-05-28_12-56-49.156099,"95.76,72.65"
2024-05-28_12-56-49.188840,"98.63,64.91"
2024-05-28_12-56-49.221596,"113.00,56.88"
2024-05-28_12-56-49.254424,"88.03,54.53"
2024-05-28_12-56-49.287133,"85.53,54.13"
2024-05-28_12-56-49.319825,"62.42,71.36"
2024-05-28_12-56-49.352532,"77.92,80.51"
2024-05-28_12-56-49.381339,"83.73,89.06"
2024-05-28_12-56-49.414111,"94.51,79.38"
2024-05-28_12-56-49.446914,"89.31,81.96"
2024-05-28_12-56-49.479675,"101.94,72.30"
2024-05-28_12-56-49.512391,"82.82,53.49"
2024-05-28_12-56-49.545108,"98.27,52.92"
2024-05-28_12-56-49.577785,"98.14,52.17"
2024-05-28_12-56-49.606581,"69.73,54.80"
2024-05-28_12-56-49.639387,"72.52,73.75"
2024-05-28_12-56-49.672115,"81.67,79.89"
2024-05-28_12-56-49.704868,"85.55,86.59"
2024-05-28_12-56-49.737677,"85.41,72.14"
2024-05-28_12-56-49.770385,"98.44,77.71"
2024-05-28_12-56-49.803081,"109.78,72.32"
2024-05-28_12-56-49.831891,"88.96,54.19"
2024-05-28_12-56-49.864636,"106.96,53.28"
2024-05-28_12-56-49.897412,"92.04,56.91"
2024-05-28_12-56-49.930164,"66.89,51.09"
2024-05-28_12-56-49.962908,"69.15,100.95"
2024-05-28_12-56-49.995612,"82.20,78.90"
2024-05-28_12-56-50.028326,"100.43,81.69"
2024-05-28_12-56-50.057142,"92.58,76.61"
2024-05-28_12-56-50.089913,"90.37,81.45"
2024-05-28_12-56-50.122650,"107.54,68.95"
2024-05-28_12-56-50.155414,"86.02,51.31"
2024-05-28_12-56-50.188172,"103.45,52.40"
2024-05-28_12-56-50.220876,"77.46,59.37"
2024-05-28_12-56-50.253558,"61.81,58.78"
2024-05-28_12-56-50.282402,"74.04,74.85"
2024-05-28_12-56-50.315111,"80.16,85.59"
2024-05-28_12-56-50.347890,"86.97,91.43"
2024-05-28_12-56-50.380671,"108.96,82.48"
2024-05-28_12-56-50.413515,"87.76,70.91"
2024-05-28_12-56-50.446192,"109.33,52.74"
2024-05-28_12-56-50.479013,"97.88,56.86"
2024-05-28_12-56-50.507905,"95.16,46.61"
2024-05-28_12-56-50.540602,"75.50,59.53"
2024-05-28_12-56-50.573146,"67.58,81.77"
2024-05-28_12-56-50.606172,"72.38,83.56"
2024-05-28_12-56-50.638762,"93.54,87.27"
2024-05-28_12-56-50.671441,"84.84,81.52"
2024-05-28_12-56-50.704132,"93.04,79.72"
2024-05-28_12-56-50.732905,"96.35,69.10"
2024-05-28_12-56-50.765719,"100.75,52.86"
2024-05-28_12-56-50.800613,"105.52,56.45"
2024-05-28_12-56-50.831209,"87.86,54.96"
2024-05-28_12-56-50.863963,"70.55,56.84"
2024-05-28_12-56-50.896734,"69.11,82.23"
2024-05-28_12-56-50.929444,"84.31,88.91"
2024-05-28_12-56-50.958163,"98.37,88.32"
2024-05-28_12-56-50.990955,"80.32,78.77"
2024-05-28_12-56-51.023731,"92.37,79.77"
2024-05-28_12-56-51.056455,"95.65,56.69"
2024-05-28_12-56-51.089378,"101.09,46.98"
2024-05-28_12-56-51.122048,"106.15,57.66"
2024-05-28_12-56-51.154689,"70.75,56.77"
2024-05-28_12-56-51.183489,"71.00,57.22"
2024-05-28_12-56-51.216227,"70.62,69.60"
2024-05-28_12-56-51.248973,"85.50,86.48"
2024-05-28_12-56-51.281738,"86.47,84.56"
2024-05-28_12-56-51.314561,"86.87,83.56"
2024-05-28_12-56-51.347254,"93.28,82.68"
2024-05-28_12-56-51.379965,"84.58,56.66"
2024-05-28_12-56-51.408747,"95.65,53.92"
2024-05-28_12-56-51.441499,"103.80,54.62"
2024-05-28_12-56-51.474213,"70.50,55.15"
2024-05-28_12-56-51.507055,"63.89,85.39"
2024-05-28_12-56-51.539750,"83.01,93.59"
2024-05-28_12-56-51.572651,"82.75,81.89"
2024-05-28_12-56-51.605227,"84.56,83.08"
2024-05-28_12-56-51.634117,"94.29,75.68"
2024-05-28_12-56-51.666828,"88.32,77.95"
2024-05-28_12-56-51.699520,"93.14,56.43"
2024-05-28_12-56-51.732299,"94.04,54.74"
2024-05-28_12-56-51.765057,"91.91,55.12"
2024-05-28_12-56-51.797832,"61.08,59.47"
2024-05-28_12-56-51.830512,"70.88,50.94"
2024-05-28_12-56-51.859269,"79.99,91.35"
2024-05-28_12-56-51.892007,"82.04,83.23"
2024-05-28_12-56-51.924767,"91.58,88.40"
2024-05-28_12-56-51.957534,"103.15,72.69"
2024-05-28_12-56-51.990306,"84.35,82.91"
2024-05-28_12-56-52.023122,"99.14,52.70"
2024-05-28_12-56-52.055759,"102.23,51.54"
2024-05-28_12-56-52.084524,"85.41,52.50"
2024-05-28_12-56-52.117268,"61.38,62.15"
2024-05-28_12-56-52.150021,"80.32,70.44"
2024-05-28_12-56-52.182802,"85.64,84.61"
2024-05-28_12-56-52.215573,"79.86,78.51"
2024-05-28_12-56-52.248320,"104.60,79.16"
2024-05-28_12-56-52.281112,"106.19,85.19"
2024-05-28_12-56-52.313795,"89.25,54.27"
2024-05-28_12-56-52.342568,"69.65,55.28"
2024-05-28_12-56-52.375323,"86.96,59.02"
2024-05-28_12-56-52.408104,"72.04,48.53"
2024-05-28_12-56-52.440912,"73.97,79.07"
2024-05-28_12-56-52.473636,"78.28,81.37"
2024-05-28_12-56-52.506312,"84.97,90.22"
2024-05-28_12-56-52.539017,"95.79,71.36"
2024-05-28_12-56-52.567781,"94.87,81.66"
2024-05-28_12-56-52.600562,"106.78,69.12"
2024-05-28_12-56-52.633348,"97.65,51.57"
2024-05-28_12-56-52.666125,"96.64,53.91"
2024-05-28_12-56-52.698940,"90.55,59.52"
2024-05-28_12-56-52.731634,"64.55,57.18"
2024-05-28_12-56-52.764246,"69.63,80.28"
2024-05-28_12-56-52.793055,"80.21,77.08"
2024-05-28_12-56-52.825849,"101.21,86.83"
2024-05-28_12-56-52.858665,"97.77,80.98"
2024-05-28_12-56-52.891402,"81.94,56.02"
2024-05-28_12-56-52.924148,"107.59,52.86"
2024-05-28_12-56-52.956826,"85.25,56.11"
2024-05-28_12-56-52.989554,"107.16,46.44"
2024-05-28_12-56-53.018344,"78.20,60.05"
2024-05-28_12-56-53.051121,"72.16,59.21"
2024-05-28_12-56-53.083923,"73.87,77.81"
2024-05-28_12-56-53.116635,"81.62,91.35"
2024-05-28_12-56-53.149473,"83.19,87.98"
2024-05-28_12-56-53.182117,"99.62,80.07"
2024-05-28_12-56-53.214832,"94.42,68.65"
2024-05-28_12-56-53.243804,"79.42,68.69"
2024-05-28_12-56-53.276373,"94.70,56.45"
2024-05-28_12-56-53.309212,"91.51,54.65"
2024-05-28_12-56-53.342249,"75.04,57.74"
2024-05-28_12-56-53.374720,"68.43,66.92"
2024-05-28_12-56-53.410262,"77.96,81.69"
2024-05-28_12-56-53.440051,"84.45,95.25"
2024-05-28_12-56-53.468877,"69.54,87.49"
2024-05-28_12-56-53.501647,"93.94,74.27"
2024-05-28_12-56-53.534782,"88.35,59.29"
2024-05-28_12-56-53.567170,"93.76,47.80"
2024-05-28_12-56-53.599931,"95.78,58.10"
2024-05-28_12-56-53.632664,"72.81,56.91"
2024-05-28_12-56-53.666293,"72.59,56.59"
2024-05-28_12-56-53.694198,"69.87,75.28"
2024-05-28_12-56-53.726997,"78.14,76.00"
2024-05-28_12-56-53.759650,"82.04,92.64"
2024-05-28_12-56-53.792470,"83.83,84.65"
2024-05-28_12-56-53.825189,"90.25,71.08"
2024-05-28_12-56-53.857960,"104.70,57.35"
2024-05-28_12-56-53.890626,"81.54,54.43"
2024-05-28_12-56-53.919485,"93.56,55.73"
2024-05-28_12-56-53.955258,"73.82,55.41"
2024-05-28_12-56-53.985050,"67.02,56.34"
2024-05-28_12-56-54.017765,"78.02,76.69"
2024-05-28_12-56-54.050503,"70.57,85.22"
2024-05-28_12-56-54.084149,"81.27,91.44"
2024-05-28_12-56-54.116184,"81.78,77.05"
2024-05-28_12-56-54.145859,"80.96,54.31"
2024-05-28_12-56-54.177522,"89.94,60.35"
2024-05-28_12-56-54.210328,"75.11,56.86"
2024-05-28_12-56-54.243340,"79.08,57.73"
2024-05-28_12-56-54.275842,"65.99,68.21"
2024-05-28_12-56-54.308538,"80.52,78.92"
2024-05-28_12-56-54.341275,"77.50,94.56"
2024-05-28_12-56-54.372020,"84.29,78.80"
2024-05-28_12-56-54.402790,"94.20,85.16"
2024-05-28_12-56-54.435536,"106.68,73.99"
2024-05-28_12-56-54.468288,"83.62,53.78"
2024-05-28_12-56-54.501045,"98.98,53.77"
2024-05-28_12-56-54.533786,"103.29,52.51"
2024-05-28_12-56-54.566419,"70.14,55.76"
2024-05-28_12-56-54.595249,"74.62,71.86"
2024-05-28_12-56-54.628012,"79.30,82.04"
2024-05-28_12-56-54.660941,"76.16,91.02"
2024-05-28_12-56-54.698356,"84.79,78.80"
2024-05-28_12-56-54.726643,"82.36,76.21"
2024-05-28_12-56-54.759077,"97.28,62.22"
2024-05-28_12-56-54.791774,"89.96,55.20"
2024-05-28_12-56-54.820510,"94.90,52.90"
2024-05-28_12-56-54.853404,"87.46,57.39"
2024-05-28_12-56-54.886065,"67.75,50.64"
2024-05-28_12-56-54.918830,"69.87,81.33"
2024-05-28_12-56-54.951587,"81.79,78.71"
2024-05-28_12-56-54.984372,"98.96,82.18"
2024-05-28_12-56-55.016999,"93.96,77.78"
2024-05-28_12-56-55.049690,"93.20,81.68"
2024-05-28_12-56-55.078516,"86.77,69.27"
2024-05-28_12-56-55.111293,"87.37,51.62"
2024-05-28_12-56-55.144059,"100.55,53.03"
2024-05-28_12-56-55.178307,"78.49,60.43"
2024-05-28_12-56-55.211076,"75.64,87.86"
2024-05-28_12-56-55.242460,"69.75,84.76"
2024-05-28_12-56-55.275282,"75.37,83.24"
2024-05-28_12-56-55.303831,"82.73,94.35"
2024-05-28_12-56-55.336622,"105.09,85.02"
2024-05-28_12-56-55.369375,"86.91,55.41"
2024-05-28_12-56-55.402134,"107.82,53.33"
2024-05-28_12-56-55.434892,"87.43,56.97"
2024-05-28_12-56-55.467644,"97.63,47.10"
2024-05-28_12-56-55.500261,"75.91,60.97"
2024-05-28_12-56-55.529106,"65.28,64.70"
2024-05-28_12-56-55.562161,"74.54,92.03"
2024-05-28_12-56-55.594631,"80.53,88.01"
2024-05-28_12-56-55.627386,"84.72,94.01"
2024-05-28_12-56-55.660741,"92.23,80.01"
2024-05-28_12-56-55.692856,"98.71,51.79"
2024-05-28_12-56-55.725561,"87.62,53.64"
2024-05-28_12-56-55.754344,"95.26,57.32"
2024-05-28_12-56-55.787105,"71.64,56.58"
2024-05-28_12-56-55.819859,"67.44,57.38"
2024-05-28_12-56-55.852594,"78.79,58.82"
2024-05-28_12-56-55.885483,"89.10,86.99"
2024-05-28_12-56-55.920151,"86.25,91.67"
2024-05-28_12-56-55.950807,"86.11,83.22"
2024-05-28_12-56-55.979631,"95.75,80.47"
2024-05-28_12-56-56.012402,"96.51,57.08"
2024-05-28_12-56-56.045202,"100.70,47.13"
2024-05-28_12-56-56.077986,"108.38,57.73"
2024-05-28_12-56-56.110742,"63.06,57.21"
2024-05-28_12-56-56.143849,"68.68,85.12"
2024-05-28_12-56-56.176211,"79.92,90.65"
2024-05-28_12-56-56.204955,"83.93,84.27"
2024-05-28_12-56-56.237604,"85.62,84.27"
2024-05-28_12-56-56.270436,"95.27,69.66"
2024-05-28_12-56-56.303169,"98.80,81.43"
2024-05-28_12-56-56.335918,"107.51,57.07"
2024-05-28_12-56-56.368644,"84.53,54.09"
