timestamp,EMG
2024-05-28_13-13-35.629463,"81.24,84.83"
2024-05-28_13-13-35.662207,"66.86,72.91"
2024-05-28_13-13-35.694960,"65.23,75.98"
2024-05-28_13-13-35.727721,"73.64,81.00"
2024-05-28_13-13-35.760771,"74.15,66.85"
2024-05-28_13-13-35.793226,"83.21,82.49"
2024-05-28_13-13-35.825908,"83.57,60.08"
2024-05-28_13-13-35.854752,"99.92,80.39"
2024-05-28_13-13-35.887477,"93.80,90.04"
2024-05-28_13-13-35.920216,"53.47,90.49"
2024-05-28_13-13-35.952976,"70.84,86.51"
2024-05-28_13-13-35.985725,"81.15,76.22"
2024-05-28_13-13-36.018487,"59.65,77.20"
2024-05-28_13-13-36.051176,"62.03,84.59"
2024-05-28_13-13-36.079940,"75.22,70.56"
2024-05-28_13-13-36.112747,"67.49,76.19"
2024-05-28_13-13-36.145473,"87.33,73.68"
2024-05-28_13-13-36.178219,"95.04,61.54"
2024-05-28_13-13-36.210995,"87.29,81.27"
2024-05-28_13-13-36.243727,"88.77,76.18"
2024-05-28_13-13-36.276420,"71.46,96.89"
2024-05-28_13-13-36.305177,"62.69,85.82"
2024-05-28_13-13-36.337944,"85.02,76.44"
2024-05-28_13-13-36.370706,"75.50,82.95"
2024-05-28_13-13-36.403496,"83.24,72.17"
2024-05-28_13-13-36.436251,"66.27,77.18"
2024-05-28_13-13-36.468979,"73.79,80.25"
2024-05-28_13-13-36.501699,"80.84,66.56"
2024-05-28_13-13-36.530447,"79.66,87.81"
2024-05-28_13-13-36.563204,"77.84,69.11"
2024-05-28_13-13-36.595956,"98.11,86.30"
2024-05-28_13-13-36.628812,"68.39,98.68"
2024-05-28_13-13-36.661572,"59.62,81.62"
2024-05-28_13-13-36.694278,"83.87,81.91"
2024-05-28_13-13-36.726957,"62.63,74.98"
2024-05-28_13-13-36.755665,"61.92,77.97"
2024-05-28_13-13-36.788407,"64.95,82.66"
2024-05-28_13-13-36.821209,"81.24,70.42"
2024-05-28_13-13-36.853966,"67.47,75.84"
2024-05-28_13-13-36.886743,"81.02,71.46"
2024-05-28_13-13-36.919531,"95.54,62.35"
2024-05-28_13-13-36.952211,"88.58,81.41"
2024-05-28_13-13-36.980952,"84.51,92.93"
2024-05-28_13-13-37.013687,"75.62,95.40"
2024-05-28_13-13-37.046462,"64.25,84.85"
2024-05-28_13-13-37.079230,"95.22,73.00"
2024-05-28_13-13-37.111977,"62.98,82.53"
2024-05-28_13-13-37.144762,"71.02,72.25"
2024-05-28_13-13-37.177487,"69.77,75.38"
2024-05-28_13-13-37.206223,"81.17,80.71"
2024-05-28_13-13-37.238952,"92.32,68.65"
2024-05-28_13-13-37.271710,"95.04,70.14"
2024-05-28_13-13-37.306379,"78.95,72.58"
2024-05-28_13-13-37.337386,"90.00,91.14"
2024-05-28_13-13-37.370060,"62.08,101.71"
2024-05-28_13-13-37.402701,"74.42,76.89"
2024-05-28_13-13-37.431468,"82.62,80.39"
2024-05-28_13-13-37.464204,"65.46,73.79"
2024-05-28_13-13-37.496977,"69.06,76.74"
2024-05-28_13-13-37.529724,"66.08,83.55"
2024-05-28_13-13-37.562479,"77.87,70.25"
2024-05-28_13-13-37.595278,"66.07,77.84"
2024-05-28_13-13-37.628018,"88.63,70.53"
2024-05-28_13-13-37.656694,"81.82,66.64"
2024-05-28_13-13-37.689463,"91.48,82.48"
2024-05-28_13-13-37.722222,"84.39,92.23"
2024-05-28_13-13-37.755028,"61.05,90.51"
2024-05-28_13-13-37.787754,"70.99,83.40"
2024-05-28_13-13-37.820511,"82.93,71.47"
2024-05-28_13-13-37.853249,"63.62,82.44"
2024-05-28_13-13-37.885994,"71.78,71.95"
2024-05-28_13-13-37.914715,"66.54,76.81"
2024-05-28_13-13-37.948927,"72.75,80.58"
2024-05-28_13-13-37.980355,"86.39,61.88"
2024-05-28_13-13-38.013012,"85.37,77.36"
2024-05-28_13-13-38.045768,"79.82,75.55"
2024-05-28_13-13-38.078515,"93.25,99.87"
2024-05-28_13-13-38.111201,"57.65,90.98"
2024-05-28_13-13-38.140002,"84.96,74.56"
2024-05-28_13-13-38.172737,"80.53,77.94"
2024-05-28_13-13-38.205512,"67.41,74.78"
2024-05-28_13-13-38.238284,"71.05,75.29"
2024-05-28_13-13-38.271023,"68.92,82.96"
2024-05-28_13-13-38.303752,"79.99,71.73"
2024-05-28_13-13-38.336452,"91.03,64.51"
2024-05-28_13-13-38.365198,"87.21,81.61"
2024-05-28_13-13-38.397974,"69.25,70.83"
2024-05-28_13-13-38.430766,"85.99,86.56"
2024-05-28_13-13-38.463511,"88.53,87.22"
2024-05-28_13-13-38.496277,"74.45,75.21"
2024-05-28_13-13-38.529009,"72.43,88.41"
2024-05-28_13-13-38.561687,"65.74,93.88"
2024-05-28_13-13-38.590477,"69.02,78.30"
2024-05-28_13-13-38.623222,"81.97,66.54"
2024-05-28_13-13-38.656016,"96.76,87.86"
2024-05-28_13-13-38.688807,"91.47,54.06"
2024-05-28_13-13-38.721601,"75.73,71.54"
2024-05-28_13-13-38.754301,"86.95,78.34"
2024-05-28_13-13-38.786957,"94.26,84.07"
2024-05-28_13-13-38.815722,"79.23,81.79"
2024-05-28_13-13-38.848498,"93.27,84.28"
2024-05-28_13-13-38.881234,"79.03,77.89"
2024-05-28_13-13-38.914024,"91.61,74.35"
2024-05-28_13-13-38.946852,"57.64,89.19"
2024-05-28_13-13-38.979660,"80.01,87.08"
2024-05-28_13-13-39.012333,"83.55,59.29"
2024-05-28_13-13-39.041038,"90.72,78.35"
2024-05-28_13-13-39.073778,"85.80,82.11"
2024-05-28_13-13-39.106571,"71.88,61.28"
2024-05-28_13-13-39.139358,"101.25,97.46"
2024-05-28_13-13-39.172072,"90.06,82.70"
2024-05-28_13-13-39.204869,"95.31,87.30"
2024-05-28_13-13-39.237495,"78.07,76.24"
2024-05-28_13-13-39.266206,"87.85,76.12"
2024-05-28_13-13-39.299058,"83.86,84.19"
2024-05-28_13-13-39.331797,"69.93,56.62"
2024-05-28_13-13-39.364836,"71.55,81.71"
2024-05-28_13-13-39.397380,"102.42,81.77"
2024-05-28_13-13-39.430152,"73.81,68.36"
2024-05-28_13-13-39.462790,"74.81,74.63"
2024-05-28_13-13-39.491511,"97.84,79.77"
2024-05-28_13-13-39.524317,"85.72,82.89"
2024-05-28_13-13-39.557091,"100.18,82.54"
2024-05-28_13-13-39.589821,"88.81,86.80"
2024-05-28_13-13-39.622564,"88.44,82.35"
2024-05-28_13-13-39.655287,"77.29,69.72"
2024-05-28_13-13-39.688014,"80.84,79.09"
2024-05-28_13-13-39.716866,"78.25,70.37"
2024-05-28_13-13-39.749532,"93.44,54.40"
2024-05-28_13-13-39.782329,"89.25,70.45"
2024-05-28_13-13-39.815065,"84.77,69.99"
2024-05-28_13-13-39.847865,"73.87,81.27"
2024-05-28_13-13-39.880652,"95.41,81.72"
2024-05-28_13-13-39.913367,"78.66,72.14"
2024-05-28_13-13-39.942049,"78.93,82.97"
2024-05-28_13-13-39.974831,"80.31,75.33"
2024-05-28_13-13-40.007601,"88.57,76.30"
2024-05-28_13-13-40.040363,"83.70,83.28"
2024-05-28_13-13-40.073131,"69.34,78.34"
2024-05-28_13-13-40.105898,"98.14,60.22"
2024-05-28_13-13-40.138526,"89.05,54.17"
2024-05-28_13-13-40.167290,"88.71,49.06"
2024-05-28_13-13-40.200082,"70.22,81.81"
2024-05-28_13-13-40.236053,"95.74,80.32"
2024-05-28_13-13-40.265654,"84.46,73.49"
2024-05-28_13-13-40.298344,"85.20,86.37"
2024-05-28_13-13-40.331100,"57.47,97.14"
2024-05-28_13-13-40.363837,"80.75,78.90"
2024-05-28_13-13-40.392535,"82.42,69.05"
2024-05-28_13-13-40.425395,"86.99,70.27"
2024-05-28_13-13-40.458105,"82.96,88.59"
2024-05-28_13-13-40.490906,"92.24,61.43"
2024-05-28_13-13-40.523634,"91.58,59.48"
2024-05-28_13-13-40.556405,"67.81,56.72"
2024-05-28_13-13-40.589015,"73.33,81.02"
2024-05-28_13-13-40.617790,"98.40,93.28"
2024-05-28_13-13-40.650616,"84.74,69.61"
2024-05-28_13-13-40.683337,"94.06,81.09"
2024-05-28_13-13-40.716145,"85.26,74.71"
2024-05-28_13-13-40.748931,"81.01,79.08"
2024-05-28_13-13-40.781642,"92.04,83.32"
2024-05-28_13-13-40.814295,"81.10,70.94"
2024-05-28_13-13-40.846990,"89.10,82.68"
2024-05-28_13-13-40.875840,"88.59,56.09"
2024-05-28_13-13-40.908576,"84.02,52.26"
2024-05-28_13-13-40.941345,"73.75,84.79"
2024-05-28_13-13-40.974085,"92.53,74.73"
2024-05-28_13-13-41.006869,"102.28,83.52"
2024-05-28_13-13-41.039537,"75.65,79.63"
2024-05-28_13-13-41.072237,"82.01,82.87"
2024-05-28_13-13-41.101029,"87.11,77.75"
2024-05-28_13-13-41.133830,"77.45,67.97"
2024-05-28_13-13-41.166583,"83.12,80.30"
2024-05-28_13-13-41.199355,"84.16,71.64"
2024-05-28_13-13-41.232086,"89.22,69.77"
2024-05-28_13-13-41.264787,"84.21,74.29"
2024-05-28_13-13-41.297519,"55.97,78.91"
2024-05-28_13-13-41.326286,"102.54,93.62"
2024-05-28_13-13-41.359074,"95.29,70.87"
2024-05-28_13-13-41.391837,"79.45,78.27"
2024-05-28_13-13-41.424561,"76.82,78.74"
2024-05-28_13-13-41.457377,"82.83,71.92"
2024-05-28_13-13-41.490055,"76.75,76.30"
2024-05-28_13-13-41.522750,"94.05,82.94"
2024-05-28_13-13-41.551572,"76.13,69.94"
2024-05-28_13-13-41.584305,"86.20,67.94"
2024-05-28_13-13-41.617052,"85.55,53.32"
2024-05-28_13-13-41.649864,"76.88,78.24"
2024-05-28_13-13-41.682650,"91.75,93.60"
2024-05-28_13-13-41.715474,"90.31,86.25"
2024-05-28_13-13-41.748051,"99.50,83.28"
2024-05-28_13-13-41.776856,"68.94,75.55"
2024-05-28_13-13-41.809683,"82.00,82.45"
2024-05-28_13-13-41.842497,"87.08,81.67"
2024-05-28_13-13-41.875135,"86.14,68.70"
2024-05-28_13-13-41.907957,"82.68,67.99"
2024-05-28_13-13-41.940580,"98.24,56.47"
2024-05-28_13-13-41.973278,"81.31,55.02"
2024-05-28_13-13-42.002053,"63.72,74.73"
2024-05-28_13-13-42.034867,"82.19,79.43"
2024-05-28_13-13-42.067613,"101.09,86.54"
2024-05-28_13-13-42.100357,"83.16,80.04"
2024-05-28_13-13-42.133096,"67.88,73.93"
2024-05-28_13-13-42.165896,"84.85,78.04"
2024-05-28_13-13-42.198534,"84.15,72.01"
2024-05-28_13-13-42.227317,"81.48,77.54"
2024-05-28_13-13-42.260056,"93.49,84.35"
2024-05-28_13-13-42.292870,"86.54,54.08"
2024-05-28_13-13-42.325635,"98.96,68.31"
2024-05-28_13-13-42.358399,"75.41,69.83"
2024-05-28_13-13-42.391098,"94.17,72.90"
2024-05-28_13-13-42.423782,"91.74,88.55"
2024-05-28_13-13-42.452536,"75.74,65.26"
2024-05-28_13-13-42.485395,"83.07,80.38"
2024-05-28_13-13-42.518119,"77.52,73.24"
2024-05-28_13-13-42.550880,"87.13,81.64"
2024-05-28_13-13-42.583610,"86.64,80.94"
2024-05-28_13-13-42.616371,"85.14,68.42"
2024-05-28_13-13-42.649061,"81.89,81.76"
2024-05-28_13-13-42.677810,"108.78,56.78"
2024-05-28_13-13-42.710547,"74.29,81.53"
2024-05-28_13-13-42.743356,"75.30,88.81"
2024-05-28_13-13-42.776089,"85.67,81.94"
2024-05-28_13-13-42.808846,"81.47,74.00"
2024-05-28_13-13-42.841705,"93.12,86.72"
2024-05-28_13-13-42.874296,"71.82,72.15"
2024-05-28_13-13-42.903107,"89.05,79.69"
2024-05-28_13-13-42.935814,"83.40,72.16"
2024-05-28_13-13-42.968570,"81.27,77.41"
2024-05-28_13-13-43.001348,"94.32,85.15"
2024-05-28_13-13-43.034116,"89.11,55.66"
2024-05-28_13-13-43.066869,"83.83,76.17"
2024-05-28_13-13-43.099567,"67.10,87.09"
2024-05-28_13-13-43.128300,"99.47,78.58"
2024-05-28_13-13-43.161080,"81.41,71.64"
2024-05-28_13-13-43.193839,"82.13,78.04"
2024-05-28_13-13-43.226732,"75.66,78.98"
2024-05-28_13-13-43.259357,"83.69,71.16"
2024-05-28_13-13-43.292200,"80.79,80.92"
2024-05-28_13-13-43.324820,"92.56,71.30"
2024-05-28_13-13-43.353604,"86.56,50.02"
2024-05-28_13-13-43.386368,"88.73,68.83"
2024-05-28_13-13-43.419089,"88.69,52.51"
2024-05-28_13-13-43.451860,"75.58,82.80"
2024-05-28_13-13-43.484668,"91.45,88.85"
2024-05-28_13-13-43.517390,"79.49,65.80"
2024-05-28_13-13-43.550101,"80.15,79.70"
2024-05-28_13-13-43.578787,"90.00,83.39"
2024-05-28_13-13-43.611637,"80.86,70.81"
2024-05-28_13-13-43.644384,"84.72,79.23"
2024-05-28_13-13-43.677118,"82.33,71.20"
2024-05-28_13-13-43.709846,"82.51,77.62"
2024-05-28_13-13-43.742898,"108.92,72.11"
2024-05-28_13-13-43.775400,"70.81,74.11"
2024-05-28_13-13-43.804118,"70.16,75.42"
2024-05-28_13-13-43.836911,"94.61,68.69"
2024-05-28_13-13-43.869624,"79.28,76.35"
2024-05-28_13-13-43.902463,"99.00,84.60"
2024-05-28_13-13-43.935163,"81.17,73.98"
2024-05-28_13-13-43.967980,"77.97,82.09"
2024-05-28_13-13-44.000626,"83.96,71.82"
2024-05-28_13-13-44.033306,"87.17,81.59"
2024-05-28_13-13-44.062151,"85.17,76.50"
2024-05-28_13-13-44.094912,"93.55,52.27"
2024-05-28_13-13-44.127637,"90.95,52.90"
2024-05-28_13-13-44.160422,"62.48,80.27"
2024-05-28_13-13-44.193148,"83.17,81.52"
2024-05-28_13-13-44.225884,"95.27,80.21"
2024-05-28_13-13-44.258667,"73.59,67.91"
2024-05-28_13-13-44.287402,"91.22,76.52"
2024-05-28_13-13-44.320200,"80.06,84.79"
2024-05-28_13-13-44.352903,"75.86,72.59"
2024-05-28_13-13-44.385690,"89.01,80.61"
2024-05-28_13-13-44.418494,"88.51,71.66"
2024-05-28_13-13-44.451146,"79.93,46.40"
2024-05-28_13-13-44.483833,"107.47,56.76"
2024-05-28_13-13-44.512648,"61.82,82.64"
2024-05-28_13-13-44.545454,"75.82,92.10"
2024-05-28_13-13-44.578264,"93.27,82.31"
2024-05-28_13-13-44.610939,"95.72,89.64"
2024-05-28_13-13-44.643714,"91.81,82.87"
2024-05-28_13-13-44.677543,"77.01,71.16"
2024-05-28_13-13-44.709131,"74.29,86.14"
2024-05-28_13-13-44.737925,"105.77,66.78"
2024-05-28_13-13-44.770687,"87.11,83.07"
2024-05-28_13-13-44.803457,"87.97,82.27"
2024-05-28_13-13-44.836221,"77.80,57.24"
2024-05-28_13-13-44.868982,"77.16,53.87"
2024-05-28_13-13-44.901652,"75.61,82.23"
2024-05-28_13-13-44.934362,"93.39,75.55"
2024-05-28_13-13-44.963131,"83.50,81.26"
2024-05-28_13-13-44.995856,"77.85,78.92"
2024-05-28_13-13-45.028706,"81.04,75.69"
2024-05-28_13-13-45.061397,"86.96,84.15"
2024-05-28_13-13-45.094238,"71.11,70.85"
2024-05-28_13-13-45.126907,"87.82,80.68"
2024-05-28_13-13-45.159612,"84.50,71.99"
2024-05-28_13-13-45.188376,"89.24,64.19"
2024-05-28_13-13-45.221170,"90.24,62.72"
2024-05-28_13-13-45.253930,"54.80,76.36"
2024-05-28_13-13-45.286631,"95.79,87.01"
2024-05-28_13-13-45.319601,"103.74,85.30"
2024-05-28_13-13-45.352125,"91.37,90.67"
2024-05-28_13-13-45.384870,"75.99,78.59"
2024-05-28_13-13-45.413687,"81.97,69.52"
2024-05-28_13-13-45.446370,"83.22,80.48"
2024-05-28_13-13-45.479193,"84.81,72.17"
2024-05-28_13-13-45.511933,"88.25,82.25"
2024-05-28_13-13-45.544674,"86.64,68.47"
2024-05-28_13-13-45.577415,"98.19,52.92"
2024-05-28_13-13-45.610117,"73.15,73.75"
2024-05-28_13-13-45.638864,"88.37,88.71"
2024-05-28_13-13-45.671615,"96.33,86.74"
2024-05-28_13-13-45.704405,"85.49,84.18"
2024-05-28_13-13-45.737169,"78.01,74.36"
2024-05-28_13-13-45.769930,"91.11,75.17"
2024-05-28_13-13-45.802671,"81.87,83.08"
2024-05-28_13-13-45.835359,"75.18,69.58"
2024-05-28_13-13-45.864125,"88.86,81.19"
2024-05-28_13-13-45.896851,"83.81,71.15"
2024-05-28_13-13-45.929707,"90.89,45.91"
2024-05-28_13-13-45.962478,"69.58,84.89"
2024-05-28_13-13-45.995356,"80.32,77.15"
2024-05-28_13-13-46.028046,"81.80,71.94"
2024-05-28_13-13-46.060618,"94.25,79.33"
2024-05-28_13-13-46.089432,"69.06,86.23"
2024-05-28_13-13-46.122163,"70.87,77.58"
2024-05-28_13-13-46.154888,"82.04,68.89"
2024-05-28_13-13-46.187673,"81.23,80.31"
2024-05-28_13-13-46.220451,"84.18,71.42"
2024-05-28_13-13-46.253243,"87.09,82.97"
2024-05-28_13-13-46.285927,"106.17,51.64"
2024-05-28_13-13-46.314649,"69.10,79.32"
2024-05-28_13-13-46.347485,"76.64,90.00"
2024-05-28_13-13-46.380182,"93.06,89.03"
2024-05-28_13-13-46.412938,"82.32,74.06"
2024-05-28_13-13-46.445655,"84.84,79.39"
2024-05-28_13-13-46.478437,"74.56,72.74"
2024-05-28_13-13-46.511172,"83.40,76.56"
2024-05-28_13-13-46.539877,"89.54,84.14"
2024-05-28_13-13-46.572652,"76.96,70.11"
2024-05-28_13-13-46.605418,"89.14,81.90"
2024-05-28_13-13-46.638172,"97.25,56.44"
2024-05-28_13-13-46.670948,"89.06,46.01"
2024-05-28_13-13-46.703709,"67.27,77.53"
2024-05-28_13-13-46.736422,"93.55,75.44"
2024-05-28_13-13-46.765120,"94.29,90.67"
2024-05-28_13-13-46.797887,"73.70,67.71"
2024-05-28_13-13-46.830724,"83.33,82.86"
2024-05-28_13-13-46.863501,"83.48,80.01"
2024-05-28_13-13-46.896263,"81.38,70.25"
2024-05-28_13-13-46.928992,"87.85,58.75"
2024-05-28_13-13-46.964460,"85.59,57.32"
2024-05-28_13-13-46.997520,"92.68,69.07"
2024-05-28_13-13-47.023238,"87.52,70.67"
2024-05-28_13-13-47.056014,"89.97,77.50"
2024-05-28_13-13-47.088774,"96.93,90.33"
2024-05-28_13-13-47.121516,"102.00,88.41"
2024-05-28_13-13-47.154316,"90.25,80.81"
2024-05-28_13-13-47.186930,"76.56,80.13"
2024-05-28_13-13-47.219658,"84.25,72.74"
2024-05-28_13-13-47.248457,"80.78,77.19"
2024-05-28_13-13-47.281235,"94.47,83.85"
2024-05-28_13-13-47.314023,"80.74,53.60"
2024-05-28_13-13-47.346770,"90.18,75.47"
2024-05-28_13-13-47.379525,"74.43,92.18"
2024-05-28_13-13-47.412252,"80.88,63.23"
2024-05-28_13-13-47.444914,"91.34,92.70"
2024-05-28_13-13-47.473722,"83.47,70.79"
2024-05-28_13-13-47.506442,"77.89,82.90"
2024-05-28_13-13-47.539259,"102.46,76.47"
2024-05-28_13-13-47.572033,"86.63,83.22"
2024-05-28_13-13-47.604749,"82.11,81.43"
2024-05-28_13-13-47.637470,"87.49,69.45"
2024-05-28_13-13-47.670146,"83.26,66.85"
2024-05-28_13-13-47.698967,"101.96,55.93"
2024-05-28_13-13-47.731784,"85.47,55.11"
2024-05-28_13-13-47.764539,"68.91,90.02"
2024-05-28_13-13-47.797228,"92.29,82.65"
2024-05-28_13-13-47.829995,"103.42,81.40"
2024-05-28_13-13-47.862725,"80.90,78.57"
2024-05-28_13-13-47.895399,"77.26,73.39"
2024-05-28_13-13-47.924197,"84.54,78.03"
2024-05-28_13-13-47.956988,"84.58,71.56"
2024-05-28_13-13-47.989741,"81.74,77.25"
2024-05-28_13-13-48.022484,"93.82,84.28"
2024-05-28_13-13-48.055269,"87.70,70.36"
2024-05-28_13-13-48.087964,"102.14,51.33"
2024-05-28_13-13-48.120692,"66.54,69.71"
2024-05-28_13-13-48.149424,"95.56,83.98"
2024-05-28_13-13-48.182319,"94.04,84.78"
2024-05-28_13-13-48.215033,"86.51,68.24"
2024-05-28_13-13-48.247843,"99.73,83.22"
2024-05-28_13-13-48.280522,"75.02,75.94"
2024-05-28_13-13-48.313267,"88.86,81.07"
2024-05-28_13-13-48.345948,"87.47,79.58"
2024-05-28_13-13-48.374752,"73.03,67.69"
2024-05-28_13-13-48.407538,"75.32,73.78"
2024-05-28_13-13-48.440287,"90.82,67.61"
2024-05-28_13-13-48.473019,"66.09,59.06"
2024-05-28_13-13-48.505787,"75.78,90.78"
2024-05-28_13-13-48.538540,"85.36,78.80"
2024-05-28_13-13-48.571187,"80.88,75.47"
2024-05-28_13-13-48.599939,"84.21,85.58"
2024-05-28_13-13-48.632737,"73.81,71.97"
2024-05-28_13-13-48.665523,"89.16,79.50"
2024-05-28_13-13-48.698252,"83.20,71.42"
2024-05-28_13-13-48.731118,"82.22,77.56"
2024-05-28_13-13-48.763853,"93.69,72.58"
2024-05-28_13-13-48.796470,"97.76,55.43"
2024-05-28_13-13-48.825203,"77.46,74.84"
2024-05-28_13-13-48.858011,"80.90,87.94"
2024-05-28_13-13-48.890732,"93.35,89.23"
2024-05-28_13-13-48.923520,"89.31,72.79"
2024-05-28_13-13-48.956518,"87.67,74.82"
2024-05-28_13-13-48.989083,"75.06,81.70"
2024-05-28_13-13-49.021733,"87.76,72.27"
2024-05-28_13-13-49.050462,"85.40,81.08"
2024-05-28_13-13-49.083240,"89.24,81.31"
2024-05-28_13-13-49.115981,"85.14,69.01"
2024-05-28_13-13-49.148759,"95.01,51.53"
2024-05-28_13-13-49.181566,"83.23,55.62"
2024-05-28_13-13-49.214301,"75.29,84.18"
2024-05-28_13-13-49.246988,"95.43,87.12"
2024-05-28_13-13-49.279696,"83.85,66.62"
2024-05-28_13-13-49.308483,"81.50,80.04"
2024-05-28_13-13-49.341379,"90.60,83.45"
2024-05-28_13-13-49.374056,"81.35,71.32"
2024-05-28_13-13-49.406909,"86.62,80.51"
2024-05-28_13-13-49.439571,"92.65,61.44"
2024-05-28_13-13-49.472254,"89.44,59.10"
2024-05-28_13-13-49.504995,"109.61,56.73"
2024-05-28_13-13-49.533764,"74.10,55.56"
2024-05-28_13-13-49.566518,"71.35,82.46"
2024-05-28_13-13-49.599288,"101.48,85.78"
2024-05-28_13-13-49.632017,"85.57,76.91"
2024-05-28_13-13-49.664789,"83.05,80.81"
2024-05-28_13-13-49.697495,"85.77,71.90"
2024-05-28_13-13-49.730189,"80.97,78.05"
2024-05-28_13-13-49.758991,"84.14,71.03"
2024-05-28_13-13-49.791780,"89.36,82.12"
2024-05-28_13-13-49.824539,"90.61,81.74"
2024-05-28_13-13-49.857434,"92.65,51.76"
2024-05-28_13-13-49.890070,"92.09,52.18"
2024-05-28_13-13-49.922768,"60.74,77.93"
2024-05-28_13-13-49.955454,"95.30,78.50"
2024-05-28_13-13-49.984252,"96.97,82.88"
2024-05-28_13-13-50.016998,"75.70,65.86"
2024-05-28_13-13-50.049782,"78.95,77.06"
2024-05-28_13-13-50.082545,"85.17,83.18"
2024-05-28_13-13-50.115284,"69.78,70.54"
2024-05-28_13-13-50.148009,"88.14,80.24"
2024-05-28_13-13-50.180731,"84.34,71.78"
2024-05-28_13-13-50.209511,"89.66,63.73"
2024-05-28_13-13-50.242257,"99.81,56.84"
2024-05-28_13-13-50.275019,"53.50,57.74"
2024-05-28_13-13-50.307788,"90.63,87.11"
2024-05-28_13-13-50.340578,"102.48,88.80"
2024-05-28_13-13-50.373301,"83.45,86.77"
2024-05-28_13-13-50.406039,"75.93,78.23"
2024-05-28_13-13-50.434816,"86.21,69.98"
2024-05-28_13-13-50.467536,"75.69,79.20"
2024-05-28_13-13-50.500286,"82.66,71.17"
2024-05-28_13-13-50.533081,"87.43,82.48"
2024-05-28_13-13-50.565829,"97.20,69.25"
2024-05-28_13-13-50.598538,"93.11,52.76"
2024-05-28_13-13-50.631264,"66.02,80.39"
2024-05-28_13-13-50.659988,"89.01,89.56"
2024-05-28_13-13-50.692746,"96.43,73.39"
2024-05-28_13-13-50.725548,"86.30,85.55"
2024-05-28_13-13-50.758356,"79.66,74.65"
2024-05-28_13-13-50.791107,"87.41,76.42"
2024-05-28_13-13-50.823832,"81.21,84.32"
2024-05-28_13-13-50.856527,"76.84,70.09"
2024-05-28_13-13-50.885285,"90.92,81.30"
2024-05-28_13-13-50.918023,"91.94,56.09"
2024-05-28_13-13-50.950819,"95.90,45.65"
2024-05-28_13-13-50.983569,"64.33,96.08"
2024-05-28_13-13-51.016367,"95.18,79.48"
2024-05-28_13-13-51.049095,"86.06,83.00"
2024-05-28_13-13-51.081794,"73.73,66.93"
2024-05-28_13-13-51.110524,"91.34,81.73"
2024-05-28_13-13-51.143310,"86.55,77.78"
2024-05-28_13-13-51.179269,"82.36,73.88"
2024-05-28_13-13-51.208906,"94.05,62.77"
2024-05-28_13-13-51.241675,"96.38,63.80"
2024-05-28_13-13-51.274437,"93.22,54.77"
2024-05-28_13-13-51.307134,"97.24,52.33"
2024-05-28_13-13-51.339736,"60.99,55.16"
2024-05-28_13-13-51.368606,"96.87,87.69"
2024-05-28_13-13-51.401400,"101.54,94.39"
2024-05-28_13-13-51.434089,"83.06,72.74"
2024-05-28_13-13-51.466872,"97.34,81.95"
2024-05-28_13-13-51.499584,"78.78,72.45"
2024-05-28_13-13-51.532280,"86.86,76.42"
2024-05-28_13-13-51.564992,"93.55,84.10"
2024-05-28_13-13-51.593835,"78.59,69.60"
2024-05-28_13-13-51.626557,"88.81,51.85"
2024-05-28_13-13-51.659371,"91.74,57.01"
2024-05-28_13-13-51.692124,"69.76,48.01"
2024-05-28_13-13-51.724840,"93.46,91.00"
2024-05-28_13-13-51.757597,"96.99,86.05"
2024-05-28_13-13-51.790251,"72.38,70.38"
2024-05-28_13-13-51.819162,"77.88,74.00"
2024-05-28_13-13-51.851838,"89.76,82.76"
2024-05-28_13-13-51.884630,"80.57,79.12"
2024-05-28_13-13-51.917378,"82.69,68.09"
2024-05-28_13-13-51.950156,"81.80,81.45"
2024-05-28_13-13-51.982830,"84.47,72.87"
2024-05-28_13-13-52.015525,"94.72,53.25"
2024-05-28_13-13-52.044315,"73.20,73.43"
2024-05-28_13-13-52.077157,"84.08,75.38"
2024-05-28_13-13-52.109888,"101.34,81.47"
2024-05-28_13-13-52.142603,"90.81,92.58"
2024-05-28_13-13-52.175424,"65.16,75.06"
2024-05-28_13-13-52.208106,"83.80,77.98"
2024-05-28_13-13-52.240792,"83.43,71.00"
2024-05-28_13-13-52.269563,"83.64,77.15"
2024-05-28_13-13-52.302338,"94.96,83.92"
2024-05-28_13-13-52.335097,"85.81,70.79"
2024-05-28_13-13-52.367887,"99.40,51.71"
2024-05-28_13-13-52.400702,"64.91,73.88"
2024-05-28_13-13-52.433368,"81.87,85.58"
2024-05-28_13-13-52.466067,"91.28,85.01"
2024-05-28_13-13-52.494836,"74.84,67.05"
2024-05-28_13-13-52.527591,"83.41,78.33"
2024-05-28_13-13-52.560387,"77.65,72.06"
2024-05-28_13-13-52.593126,"90.89,80.95"
2024-05-28_13-13-52.625890,"87.75,80.33"
2024-05-28_13-13-52.658616,"85.54,68.03"
2024-05-28_13-13-52.691297,"81.21,67.71"
2024-05-28_13-13-52.720172,"104.22,56.14"
2024-05-28_13-13-52.752802,"66.36,58.57"
2024-05-28_13-13-52.785599,"90.81,88.95"
2024-05-28_13-13-52.818360,"98.48,80.39"
2024-05-28_13-13-52.851129,"83.35,70.56"
2024-05-28_13-13-52.883952,"96.88,86.80"
2024-05-28_13-13-52.916597,"76.46,71.90"
2024-05-28_13-13-52.945340,"91.59,79.06"
2024-05-28_13-13-52.978088,"81.86,70.95"
2024-05-28_13-13-53.010853,"83.10,77.57"
2024-05-28_13-13-53.043606,"94.46,84.96"
2024-05-28_13-13-53.076407,"92.58,54.62"
2024-05-28_13-13-53.109152,"75.90,53.83"
2024-05-28_13-13-53.141835,"84.41,85.45"
2024-05-28_13-13-53.170601,"84.86,87.07"
2024-05-28_13-13-53.203388,"81.27,84.11"
2024-05-28_13-13-53.236094,"81.34,74.58"
2024-05-28_13-13-53.268891,"79.88,77.65"
2024-05-28_13-13-53.301663,"80.03,71.63"
2024-05-28_13-13-53.334415,"86.70,81.94"
2024-05-28_13-13-53.367097,"89.06,81.37"
2024-05-28_13-13-53.395845,"83.53,51.67"
2024-05-28_13-13-53.428705,"90.84,51.99"
2024-05-28_13-13-53.461396,"69.37,70.82"
2024-05-28_13-13-53.494152,"82.50,80.29"
2024-05-28_13-13-53.526909,"96.51,80.36"
2024-05-28_13-13-53.559688,"82.15,89.04"
2024-05-28_13-13-53.592354,"84.74,79.42"
2024-05-28_13-13-53.621097,"83.47,83.48"
2024-05-28_13-13-53.653878,"74.55,69.79"
2024-05-28_13-13-53.686619,"86.57,80.09"
2024-05-28_13-13-53.719438,"84.19,71.58"
2024-05-28_13-13-53.752158,"80.50,78.25"
2024-05-28_13-13-53.784931,"98.19,56.90"
2024-05-28_13-13-53.817637,"67.02,57.39"
2024-05-28_13-13-53.846350,"69.09,90.59"
2024-05-28_13-13-53.879124,"87.77,80.15"
2024-05-28_13-13-53.911907,"90.64,87.75"
2024-05-28_13-13-53.944646,"83.49,79.94"
2024-05-28_13-13-53.977425,"76.51,70.70"
2024-05-28_13-13-54.010196,"85.07,78.56"
2024-05-28_13-13-54.042876,"82.36,71.50"
2024-05-28_13-13-54.075577,"86.85,81.41"
2024-05-28_13-13-54.104375,"88.21,81.56"
2024-05-28_13-13-54.137295,"95.83,53.19"
2024-05-28_13-13-54.170008,"79.68,78.54"
2024-05-28_13-13-54.202693,"71.14,81.37"
2024-05-28_13-13-54.235437,"91.36,84.36"
2024-05-28_13-13-54.268154,"82.83,83.70"
2024-05-28_13-13-54.300835,"83.08,77.35"
2024-05-28_13-13-54.329642,"85.17,75.61"
2024-05-28_13-13-54.362492,"87.93,82.67"
2024-05-28_13-13-54.395225,"71.01,70.02"
2024-05-28_13-13-54.428044,"89.97,81.36"
2024-05-28_13-13-54.460714,"87.37,56.18"
2024-05-28_13-13-54.493429,"103.81,45.56"
2024-05-28_13-13-54.526106,"87.17,84.73"
2024-05-28_13-13-54.554868,"50.76,70.69"
2024-05-28_13-13-54.587664,"97.46,85.69"
2024-05-28_13-13-54.620436,"102.09,71.35"
2024-05-28_13-13-54.653201,"91.14,83.94"
2024-05-28_13-13-54.685969,"79.50,76.75"
2024-05-28_13-13-54.718655,"87.78,69.38"
2024-05-28_13-13-54.751444,"77.85,81.39"
2024-05-28_13-13-54.780181,"91.81,75.59"
2024-05-28_13-13-54.813020,"98.18,54.34"
2024-05-28_13-13-54.845702,"100.13,52.84"
2024-05-28_13-13-54.878468,"76.88,54.51"
2024-05-28_13-13-54.911195,"68.02,74.36"
2024-05-28_13-13-54.943947,"103.18,87.91"
2024-05-28_13-13-54.976637,"82.87,85.23"
2024-05-28_13-13-55.005422,"81.84,78.02"
2024-05-28_13-13-55.038244,"71.29,72.96"
2024-05-28_13-13-55.070967,"92.59,77.38"
2024-05-28_13-13-55.103768,"86.24,83.25"
2024-05-28_13-13-55.136513,"75.19,69.76"
2024-05-28_13-13-55.169212,"82.29,76.86"
2024-05-28_13-13-55.201910,"95.75,57.23"
2024-05-28_13-13-55.230682,"90.31,47.86"
2024-05-28_13-13-55.263434,"73.70,75.05"
2024-05-28_13-13-55.296172,"91.72,74.38"
2024-05-28_13-13-55.328959,"102.23,82.91"
2024-05-28_13-13-55.361721,"76.81,82.73"
2024-05-28_13-13-55.394459,"81.28,83.14"
2024-05-28_13-13-55.427172,"86.51,78.45"
2024-05-28_13-13-55.456127,"79.92,70.60"
2024-05-28_13-13-55.488732,"87.32,73.40"
2024-05-28_13-13-55.521457,"88.88,58.08"
2024-05-28_13-13-55.554201,"90.75,53.87"
2024-05-28_13-13-55.587017,"89.70,80.21"
2024-05-28_13-13-55.619707,"57.12,74.58"
2024-05-28_13-13-55.652416,"100.89,95.64"
2024-05-28_13-13-55.681132,"96.07,71.22"
2024-05-28_13-13-55.714012,"91.66,78.52"
2024-05-28_13-13-55.746745,"86.76,83.09"
2024-05-28_13-13-55.779495,"85.06,72.91"
2024-05-28_13-13-55.812242,"77.63,76.81"
2024-05-28_13-13-55.844934,"94.37,84.55"
2024-05-28_13-13-55.877678,"79.21,70.71"
2024-05-28_13-13-55.906412,"103.71,51.71"
2024-05-28_13-13-55.939167,"85.58,52.20"
2024-05-28_13-13-55.971993,"61.13,76.45"
2024-05-28_13-13-56.004758,"90.40,96.71"
2024-05-28_13-13-56.037478,"101.32,71.99"
2024-05-28_13-13-56.070234,"76.96,83.47"
2024-05-28_13-13-56.102909,"82.42,73.44"
2024-05-28_13-13-56.131730,"94.75,84.10"
2024-05-28_13-13-56.164463,"80.93,83.11"
2024-05-28_13-13-56.197198,"85.57,68.87"
2024-05-28_13-13-56.229975,"82.85,81.06"
2024-05-28_13-13-56.262728,"102.80,56.34"
2024-05-28_13-13-56.295472,"86.32,55.87"
2024-05-28_13-13-56.328187,"65.60,77.58"
2024-05-28_13-13-56.356936,"93.76,81.59"
2024-05-28_13-13-56.389782,"96.25,83.27"
2024-05-28_13-13-56.422487,"100.53,81.61"
2024-05-28_13-13-56.455226,"79.11,74.89"
2024-05-28_13-13-56.488082,"85.86,78.91"
2024-05-28_13-13-56.520778,"85.06,69.48"
2024-05-28_13-13-56.553457,"81.65,78.71"
2024-05-28_13-13-56.582231,"94.83,84.66"
2024-05-28_13-13-56.617580,"74.87,70.30"
2024-05-28_13-13-56.650811,"90.93,73.99"
2024-05-28_13-13-56.683867,"88.54,83.90"
2024-05-28_13-13-56.715078,"81.17,88.00"
2024-05-28_13-13-56.746453,"71.77,91.77"
2024-05-28_13-13-56.779065,"76.64,67.45"
2024-05-28_13-13-56.807527,"71.87,85.69"
2024-05-28_13-13-56.840315,"72.24,74.17"
2024-05-28_13-13-56.873073,"87.13,82.58"
2024-05-28_13-13-56.908551,"88.69,80.90"
2024-05-28_13-13-56.939851,"77.53,80.67"
2024-05-28_13-13-56.971367,"94.26,75.95"
2024-05-28_13-13-57.003979,"81.05,80.40"
2024-05-28_13-13-57.032952,"74.74,99.58"
2024-05-28_13-13-57.065553,"74.32,71.02"
2024-05-28_13-13-57.098230,"92.53,82.20"
2024-05-28_13-13-57.131002,"78.01,75.44"
2024-05-28_13-13-57.163853,"95.06,84.22"
2024-05-28_13-13-57.196604,"73.85,71.98"
2024-05-28_13-13-57.229279,"90.30,79.21"
2024-05-28_13-13-57.261939,"82.58,69.88"
2024-05-28_13-13-57.291037,"80.18,72.16"
2024-05-28_13-13-57.323940,"89.83,66.38"
2024-05-28_13-13-57.356457,"75.81,82.46"
2024-05-28_13-13-57.389206,"74.23,87.21"
2024-05-28_13-13-57.421872,"81.98,76.07"
2024-05-28_13-13-57.454515,"92.96,90.35"
2024-05-28_13-13-57.487197,"98.66,74.24"
2024-05-28_13-13-57.515996,"86.85,77.46"
2024-05-28_13-13-57.548805,"77.31,78.39"
2024-05-28_13-13-57.586865,"85.78,71.55"
2024-05-28_13-13-57.614297,"82.34,82.58"
2024-05-28_13-13-57.647049,"89.82,81.36"
2024-05-28_13-13-57.679775,"86.73,67.69"
2024-05-28_13-13-57.712482,"100.28,52.00"
