timestamp,EMG
2024-05-28_13-20-01.220790,".87,51.31"
2024-05-28_13-20-01.221480,"72.42,76.71"
2024-05-28_13-20-01.221967,"86.97,86.26"
2024-05-28_13-20-01.222232,"78.44,78.06"
2024-05-28_13-20-01.222535,"72.07,74.09"
2024-05-28_13-20-01.222835,"56.19,74.72"
2024-05-28_13-20-01.222950,"88.76,82.66"
2024-05-28_13-20-01.223068,".99,80.24"
2024-05-28_13-20-01.223256,"74.96,79.47"
2024-05-28_13-20-01.223456,"83.67,69.10"
2024-05-28_13-20-01.223637,"83.87,51.31"
2024-05-28_13-20-01.223763,"72.42,76.71"
2024-05-28_13-20-01.223863,"86.97,86.26"
2024-05-28_13-20-01.223997,"78.44,78.06"
2024-05-28_13-20-01.224097,"72.07,74.09"
2024-05-28_13-20-01.224213,"56.19,74.72"
2024-05-28_13-20-01.224323,"88.76,82.66"
2024-05-28_13-20-02.870476,"113.48,84.86"
2024-05-28_13-20-02.903183,"69.74,59.75"
2024-05-28_13-20-02.935853,"89.14,89.74"
2024-05-28_13-20-02.968590,"100.99,91.44"
2024-05-28_13-20-02.997412,"87.17,85.76"
2024-05-28_13-20-03.030167,"79.78,76.46"
2024-05-28_13-20-03.063057,"83.50,69.19"
2024-05-28_13-20-03.095702,"81.55,80.28"
2024-05-28_13-20-03.128403,"84.67,72.47"
2024-05-28_13-20-03.161204,"93.71,70.37"
2024-05-28_13-20-03.193861,"95.23,53.69"
2024-05-28_13-20-03.222632,"54.78,54.85"
2024-05-28_13-20-03.255387,"102.17,96.32"
2024-05-28_13-20-03.288151,"92.59,85.32"
2024-05-28_13-20-03.320946,"73.48,75.51"
2024-05-28_13-20-03.353684,"83.18,77.73"
2024-05-28_13-20-03.386450,"84.03,71.46"
2024-05-28_13-20-03.419167,"81.78,76.93"
2024-05-28_13-20-03.447921,"93.54,84.22"
2024-05-28_13-20-03.480706,"81.20,54.60"
2024-05-28_13-20-03.513478,"87.06,76.92"
2024-05-28_13-20-03.546677,"63.08,88.76"
2024-05-28_13-20-03.579106,"83.63,74.69"
2024-05-28_13-20-03.611711,"74.78,94.58"
2024-05-28_13-20-03.644456,"78.69,73.45"
2024-05-28_13-20-03.673258,"81.15,77.26"
2024-05-28_13-20-03.706007,"85.26,71.15"
2024-05-28_13-20-03.738790,"87.31,81.76"
2024-05-28_13-20-03.771511,"88.34,82.14"
2024-05-28_13-20-03.804280,"82.74,52.63"
2024-05-28_13-20-03.837151,"73.85,52.59"
2024-05-28_13-20-03.869719,"88.26,90.34"
2024-05-28_13-20-03.898558,"95.22,80.04"
2024-05-28_13-20-03.931344,"95.24,84.92"
2024-05-28_13-20-03.964022,"92.13,75.59"
2024-05-28_13-20-03.996807,"79.60,77.27"
2024-05-28_13-20-04.029541,"88.59,83.32"
2024-05-28_13-20-04.062341,"75.71,69.49"
2024-05-28_13-20-04.095036,"86.94,68.01"
2024-05-28_13-20-04.123775,"92.12,56.42"
2024-05-28_13-20-04.156558,"68.86,53.40"
2024-05-28_13-20-04.189315,"95.64,95.53"
2024-05-28_13-20-04.222139,"95.18,82.93"
2024-05-28_13-20-04.254823,"91.04,80.74"
2024-05-28_13-20-04.287594,"72.98,73.20"
2024-05-28_13-20-04.320306,"90.91,81.58"
2024-05-28_13-20-04.349065,"88.22,80.75"
2024-05-28_13-20-04.381836,"85.81,67.62"
2024-05-28_13-20-04.414589,"78.99,51.56"
2024-05-28_13-20-04.447428,"89.90,60.39"
2024-05-28_13-20-04.480143,"61.29,90.00"
2024-05-28_13-20-04.513133,"95.10,86.29"
2024-05-28_13-20-04.545592,"93.25,75.50"
2024-05-28_13-20-04.578306,"84.62,78.62"
2024-05-28_13-20-04.607197,"82.38,85.21"
2024-05-28_13-20-04.639884,"78.71,70.84"
2024-05-28_13-20-04.672650,"86.80,80.38"
2024-05-28_13-20-04.705553,"86.06,72.09"
2024-05-28_13-20-04.738257,"94.72,64.57"
2024-05-28_13-20-04.770887,"79.95,85.20"
2024-05-28_13-20-04.803586,"68.61,68.40"
2024-05-28_13-20-04.832383,"88.62,80.45"
2024-05-28_13-20-04.865190,"84.12,78.14"
2024-05-28_13-20-04.897934,"90.11,84.07"
2024-05-28_13-20-04.930705,"86.41,78.57"
2024-05-28_13-20-04.963546,"78.69,68.10"
2024-05-28_13-20-04.996227,"84.16,71.96"
2024-05-28_13-20-05.028883,"86.87,55.22"
2024-05-28_13-20-05.057678,"95.04,54.54"
2024-05-28_13-20-05.090422,"72.02,53.31"
2024-05-28_13-20-05.123289,"80.06,82.87"
2024-05-28_13-20-05.156001,"100.81,84.88"
2024-05-28_13-20-05.188769,"85.00,78.81"
2024-05-28_13-20-05.221427,"74.25,72.65"
2024-05-28_13-20-05.254156,"89.51,78.25"
2024-05-28_13-20-05.283545,"81.28,71.12"
2024-05-28_13-20-05.315836,"82.98,77.91"
2024-05-28_13-20-05.348539,"102.56,57.20"
2024-05-28_13-20-05.381278,"79.25,54.76"
2024-05-28_13-20-05.414026,"66.54,96.33"
2024-05-28_13-20-05.446754,"91.09,82.93"
2024-05-28_13-20-05.479478,"95.30,85.76"
2024-05-28_13-20-05.508319,"83.15,81.91"
2024-05-28_13-20-05.541362,"77.86,71.82"
2024-05-28_13-20-05.595210,"88.11,61.03"
2024-05-28_13-20-05.606740,"94.30,69.07"
2024-05-28_13-20-05.639628,"103.92,63.54"
2024-05-28_13-20-05.677331,"90.20,69.15"
2024-05-28_13-20-05.713375,"63.79,83.93"
2024-05-28_13-20-05.733717,"94.67,84.84"
2024-05-28_13-20-05.766333,"83.33,81.81"
2024-05-28_13-20-05.799137,"94.59,79.06"
2024-05-28_13-20-05.831910,"74.87,79.40"
2024-05-28_13-20-05.864883,"79.41,72.00"
2024-05-28_13-20-05.897399,"73.77,76.87"
2024-05-28_13-20-05.930296,"94.92,85.34"
2024-05-28_13-20-05.958894,"77.51,70.25"
2024-05-28_13-20-05.991651,"102.22,52.01"
2024-05-28_13-20-06.024389,"77.90,77.82"
2024-05-28_13-20-06.057155,"82.54,89.70"
2024-05-28_13-20-06.089946,"82.70,85.36"
2024-05-28_13-20-06.123265,"89.27,68.46"
2024-05-28_13-20-06.156400,"89.63,82.24"
2024-05-28_13-20-06.184208,"74.17,78.55"
2024-05-28_13-20-06.216938,"87.30,71.20"
2024-05-28_13-20-06.249688,"87.46,80.31"
2024-05-28_13-20-06.282454,"84.79,67.82"
2024-05-28_13-20-06.315167,"94.78,51.97"
2024-05-28_13-20-06.347905,"76.55,58.46"
2024-05-28_13-20-06.380595,"75.90,78.28"
2024-05-28_13-20-06.409374,"85.43,77.83"
2024-05-28_13-20-06.442129,"74.66,66.80"
2024-05-28_13-20-06.474953,"80.42,76.89"
2024-05-28_13-20-06.507670,"87.62,83.26"
2024-05-28_13-20-06.540517,"75.39,70.14"
2024-05-28_13-20-06.573195,"89.99,81.47"
2024-05-28_13-20-06.605913,"82.23,56.16"
2024-05-28_13-20-06.634668,"100.21,45.89"
2024-05-28_13-20-06.667472,"70.78,90.28"
2024-05-28_13-20-06.700270,"93.70,75.48"
2024-05-28_13-20-06.733024,"92.96,83.02"
2024-05-28_13-20-06.765732,"80.90,79.65"
2024-05-28_13-20-06.798502,"84.40,81.74"
2024-05-28_13-20-06.831207,"78.47,78.23"
2024-05-28_13-20-06.860014,"84.43,67.83"
2024-05-28_13-20-06.892773,"80.83,80.98"
2024-05-28_13-20-06.925521,"103.13,72.22"
2024-05-28_13-20-06.958375,"87.51,56.29"
2024-05-28_13-20-06.991063,"75.36,75.49"
2024-05-28_13-20-07.023795,"89.32,76.63"
2024-05-28_13-20-07.056497,"91.98,85.02"
2024-05-28_13-20-07.085229,"91.49,86.77"
2024-05-28_13-20-07.118006,"75.04,71.81"
2024-05-28_13-20-07.150760,"92.46,78.73"
2024-05-28_13-20-07.183534,"85.13,71.29"
2024-05-28_13-20-07.216362,"81.32,77.86"
2024-05-28_13-20-07.249137,"108.88,56.75"
2024-05-28_13-20-07.281806,"73.90,55.94"
2024-05-28_13-20-07.310492,"67.38,90.53"
2024-05-28_13-20-07.343330,"101.50,80.20"
2024-05-28_13-20-07.376043,"92.01,75.80"
2024-05-28_13-20-07.408859,"74.06,78.67"
2024-05-28_13-20-07.441604,"81.29,69.78"
2024-05-28_13-20-07.474373,"78.53,79.19"
2024-05-28_13-20-07.507092,"84.22,71.38"
2024-05-28_13-20-07.535853,"86.42,82.08"
2024-05-28_13-20-07.568671,"105.06,52.27"
2024-05-28_13-20-07.601423,"68.62,67.64"
2024-05-28_13-20-07.634247,"89.31,90.79"
2024-05-28_13-20-07.666882,"106.68,95.85"
2024-05-28_13-20-07.699615,"79.10,79.75"
2024-05-28_13-20-07.732382,"79.06,76.86"
2024-05-28_13-20-07.765084,"73.41,72.22"
2024-05-28_13-20-07.793872,"80.89,76.64"
2024-05-28_13-20-07.826654,"93.51,83.70"
2024-05-28_13-20-07.859423,"74.17,54.37"
2024-05-28_13-20-07.892208,"100.89,51.98"
2024-05-28_13-20-07.925009,"64.95,70.88"
2024-05-28_13-20-07.957671,"90.04,84.09"
2024-05-28_13-20-07.990364,"89.51,75.93"
2024-05-28_13-20-08.019304,"82.89,75.98"
2024-05-28_13-20-08.052000,"74.16,80.72"
2024-05-28_13-20-08.084900,"80.63,60.27"
2024-05-28_13-20-08.117514,"84.63,83.74"
2024-05-28_13-20-08.150397,"89.13,82.75"
2024-05-28_13-20-08.184410,"80.39,81.57"
2024-05-28_13-20-08.215872,"79.89,66.28"
2024-05-28_13-20-08.244510,"81.07,87.30"
2024-05-28_13-20-08.277254,"90.94,79.31"
2024-05-28_13-20-08.310197,"101.35,74.38"
2024-05-28_13-20-08.342815,"85.94,85.55"
2024-05-28_13-20-08.375566,"84.00,79.67"
2024-05-28_13-20-08.408258,"90.83,84.25"
2024-05-28_13-20-08.441415,"76.26,69.61"
2024-05-28_13-20-08.479144,"91.30,70.76"
2024-05-28_13-20-08.502528,"82.15,64.13"
2024-05-28_13-20-08.535308,"83.78,71.63"
2024-05-28_13-20-08.568028,"68.63,75.69"
2024-05-28_13-20-08.601031,"99.53,87.02"
2024-05-28_13-20-08.633515,"77.82,79.15"
2024-05-28_13-20-08.666444,"69.71,97.21"
2024-05-28_13-20-08.695008,"95.01,85.53"
2024-05-28_13-20-08.727820,"94.18,81.13"
2024-05-28_13-20-08.760509,"85.55,68.34"
2024-05-28_13-20-08.793356,"87.49,68.64"
2024-05-28_13-20-08.826114,"92.38,79.03"
2024-05-28_13-20-08.858801,"63.83,89.82"
2024-05-28_13-20-08.891819,"88.76,89.29"
2024-05-28_13-20-08.920370,"84.63,58.28"
2024-05-28_13-20-08.953081,"70.84,81.49"
2024-05-28_13-20-08.985875,"91.92,84.37"
2024-05-28_13-20-09.018569,"70.77,70.46"
2024-05-28_13-20-09.051359,"87.42,80.25"
2024-05-28_13-20-09.084096,"87.35,73.03"
2024-05-28_13-20-09.116865,"91.89,64.00"
2024-05-28_13-20-09.145573,"101.08,56.08"
2024-05-28_13-20-09.178328,"53.59,58.48"
2024-05-28_13-20-09.211149,"96.41,86.40"
2024-05-28_13-20-09.243920,"99.03,70.02"
2024-05-28_13-20-09.276748,"86.44,87.92"
2024-05-28_13-20-09.309345,"86.52,80.69"
2024-05-28_13-20-09.342148,"77.70,68.33"
2024-05-28_13-20-09.370923,"81.50,80.55"
2024-05-28_13-20-09.403974,"94.54,79.17"
2024-05-28_13-20-09.436439,"88.61,69.51"
2024-05-28_13-20-09.469184,"87.95,58.01"
2024-05-28_13-20-09.501979,"58.68,78.38"
2024-05-28_13-20-09.535513,"98.99,98.17"
2024-05-28_13-20-09.567509,"86.02,78.38"
2024-05-28_13-20-09.596326,"52.15,88.57"
2024-05-28_13-20-09.628914,"75.85,91.56"
2024-05-28_13-20-09.661660,"79.95,71.08"
2024-05-28_13-20-09.694506,"82.40,76.45"
2024-05-28_13-20-09.727270,"92.67,68.41"
2024-05-28_13-20-09.760028,"89.40,57.45"
2024-05-28_13-20-09.792689,"71.90,73.92"
2024-05-28_13-20-09.821443,"88.93,75.38"
2024-05-28_13-20-09.854306,"93.76,81.68"
2024-05-28_13-20-09.889042,"95.27,88.93"
2024-05-28_13-20-09.919865,"77.04,62.34"
2024-05-28_13-20-09.952699,"69.61,96.27"
2024-05-28_13-20-09.985317,"82.23,71.51"
2024-05-28_13-20-10.017964,"75.31,81.21"
2024-05-28_13-20-10.046836,"93.49,92.97"
2024-05-28_13-20-10.079715,"98.90,72.26"
2024-05-28_13-20-10.112289,"79.99,68.12"
2024-05-28_13-20-10.145074,"91.07,78.77"
2024-05-28_13-20-10.178007,"86.09,87.03"
2024-05-28_13-20-10.210850,"85.52,75.66"
2024-05-28_13-20-10.243388,"75.36,93.53"
2024-05-28_13-20-10.272065,"74.28,98.61"
2024-05-28_13-20-10.304833,"87.08,84.92"
2024-05-28_13-20-10.337845,"77.42,70.30"
2024-05-28_13-20-10.370482,"97.88,81.53"
2024-05-28_13-20-10.414850,"82.75,66.35"
2024-05-28_13-20-10.436076,"99.53,84.35"
2024-05-28_13-20-10.468642,"84.97,83.68"
2024-05-28_13-20-10.497357,"94.82,89.16"
2024-05-28_13-20-10.530045,"73.49,87.40"
2024-05-28_13-20-10.562868,"95.33,80.38"
2024-05-28_13-20-10.596283,"84.07,61.47"
2024-05-28_13-20-10.628502,"97.32,61.19"
2024-05-28_13-20-10.661152,"85.99,69.42"
2024-05-28_13-20-10.693921,"81.58,81.74"
2024-05-28_13-20-10.726542,"103.25,68.17"
2024-05-28_13-20-10.755375,"70.03,79.99"
2024-05-28_13-20-10.788210,"92.83,77.79"
2024-05-28_13-20-10.820917,"93.33,77.27"
2024-05-28_13-20-10.853691,"84.90,85.25"
2024-05-28_13-20-10.886472,"96.95,86.87"
2024-05-28_13-20-10.919093,"80.33,72.69"
2024-05-28_13-20-10.951809,"87.64,80.18"
2024-05-28_13-20-10.980943,"87.44,70.19"
2024-05-28_13-20-11.013426,"83.84,62.64"
2024-05-28_13-20-11.046143,"102.48,59.41"
2024-05-28_13-20-11.078982,"54.60,78.24"
2024-05-28_13-20-11.111821,"92.09,90.08"
2024-05-28_13-20-11.144478,"86.04,72.09"
2024-05-28_13-20-11.177111,"90.74,84.42"
2024-05-28_13-20-11.205909,"80.96,76.94"
2024-05-28_13-20-11.238681,"81.26,69.10"
2024-05-28_13-20-11.271446,"81.89,79.69"
2024-05-28_13-20-11.304211,"84.86,71.53"
2024-05-28_13-20-11.336974,"95.98,83.66"
2024-05-28_13-20-11.369673,"94.17,52.07"
2024-05-28_13-20-11.402397,"58.71,56.71"
2024-05-28_13-20-11.431184,"94.03,90.03"
2024-05-28_13-20-11.463946,"102.28,74.28"
2024-05-28_13-20-11.496740,"83.79,77.06"
2024-05-28_13-20-11.529572,"81.94,79.27"
2024-05-28_13-20-11.562324,"81.11,72.37"
2024-05-28_13-20-11.595109,"81.42,77.46"
2024-05-28_13-20-11.627702,"94.68,84.92"
2024-05-28_13-20-11.656581,"82.71,55.17"
2024-05-28_13-20-11.689269,"92.41,52.01"
2024-05-28_13-20-11.722032,"67.00,79.70"
2024-05-28_13-20-11.754805,"94.87,80.13"
2024-05-28_13-20-11.787573,"91.68,74.18"
2024-05-28_13-20-11.820296,"77.69,76.64"
2024-05-28_13-20-11.852983,"79.92,77.98"
2024-05-28_13-20-11.881825,"79.58,70.82"
2024-05-28_13-20-11.914552,"87.04,82.18"
2024-05-28_13-20-11.947278,"91.71,83.15"
2024-05-28_13-20-11.980119,"95.30,53.61"
2024-05-28_13-20-12.012925,"80.58,80.15"
2024-05-28_13-20-12.045557,"64.03,90.30"
2024-05-28_13-20-12.078421,"91.45,75.34"
2024-05-28_13-20-12.107208,"80.52,63.71"
2024-05-28_13-20-12.139874,"69.57,86.15"
2024-05-28_13-20-12.172656,"82.78,88.08"
2024-05-28_13-20-12.205411,"80.33,83.31"
2024-05-28_13-20-12.238107,"78.98,70.54"
2024-05-28_13-20-12.270897,"89.03,81.57"
2024-05-28_13-20-12.307564,"100.00,51.79"
2024-05-28_13-20-12.332813,"85.17,82.19"
2024-05-28_13-20-12.365166,"81.96,77.59"
2024-05-28_13-20-12.397949,"89.22,80.50"
2024-05-28_13-20-12.430734,"73.31,84.01"
2024-05-28_13-20-12.463530,"84.92,77.87"
2024-05-28_13-20-12.496142,"84.25,60.55"
2024-05-28_13-20-12.528844,"82.60,80.34"
2024-05-28_13-20-12.557871,"84.36,67.98"
2024-05-28_13-20-12.590462,"83.51,88.75"
2024-05-28_13-20-12.623201,"105.45,61.18"
2024-05-28_13-20-12.655971,"63.85,75.42"
2024-05-28_13-20-12.688759,"90.01,86.55"
2024-05-28_13-20-12.721472,"96.14,69.08"
2024-05-28_13-20-12.754164,"82.43,79.66"
2024-05-28_13-20-12.782900,"92.32,84.70"
2024-05-28_13-20-12.815662,"69.32,70.42"
2024-05-28_13-20-12.848462,"86.91,79.70"
2024-05-28_13-20-12.881234,"84.70,71.55"
2024-05-28_13-20-12.914263,"93.21,64.19"
2024-05-28_13-20-12.946769,"103.09,56.40"
2024-05-28_13-20-12.979441,"54.58,63.15"
2024-05-28_13-20-13.008205,"96.26,86.30"
2024-05-28_13-20-13.041075,"81.35,65.89"
2024-05-28_13-20-13.073967,"91.44,86.27"
2024-05-28_13-20-13.106634,"98.43,80.55"
2024-05-28_13-20-13.139270,"89.82,69.31"
2024-05-28_13-20-13.172060,"65.86,79.72"
2024-05-28_13-20-13.204751,"84.82,71.42"
2024-05-28_13-20-13.233521,"95.20,82.92"
2024-05-28_13-20-13.266256,"97.76,53.77"
2024-05-28_13-20-13.299021,"58.79,59.09"
2024-05-28_13-20-13.331792,"98.39,88.02"
2024-05-28_13-20-13.364726,"100.77,77.71"
2024-05-28_13-20-13.397356,"84.04,78.62"
2024-05-28_13-20-13.430010,"79.92,78.71"
2024-05-28_13-20-13.462758,"78.40,71.71"
2024-05-28_13-20-13.491626,"80.71,77.09"
2024-05-28_13-20-13.524343,"90.89,69.57"
2024-05-28_13-20-13.557076,"91.58,54.95"
2024-05-28_13-20-13.590424,"89.20,60.77"
2024-05-28_13-20-13.622741,"76.05,56.53"
2024-05-28_13-20-13.655345,"78.75,81.00"
2024-05-28_13-20-13.688034,"86.34,86.62"
2024-05-28_13-20-13.716918,"76.42,76.25"
2024-05-28_13-20-13.749670,"76.69,78.98"
2024-05-28_13-20-13.782389,"91.59,81.56"
2024-05-28_13-20-13.815221,"83.73,54.48"
2024-05-28_13-20-13.848096,"95.51,73.69"
2024-05-28_13-20-13.880597,"81.08,55.84"
2024-05-28_13-20-13.913341,"82.01,72.06"
2024-05-28_13-20-13.942306,"73.91,73.76"
2024-05-28_13-20-13.974908,"87.66,82.86"
2024-05-28_13-20-14.007641,"85.44,81.41"
2024-05-28_13-20-14.040390,"73.07,76.88"
2024-05-28_13-20-14.073189,"89.06,75.15"
2024-05-28_13-20-14.105891,"83.63,83.83"
2024-05-28_13-20-14.138603,"77.59,69.56"
2024-05-28_13-20-14.167377,"90.17,81.39"
2024-05-28_13-20-14.200173,"88.83,72.60"
2024-05-28_13-20-14.232908,"89.62,46.23"
2024-05-28_13-20-14.265689,"71.77,78.72"
2024-05-28_13-20-14.298460,"91.39,74.82"
2024-05-28_13-20-14.331175,"83.39,71.39"
2024-05-28_13-20-14.363884,"75.21,75.04"
2024-05-28_13-20-14.392636,"92.45,81.60"
2024-05-28_13-20-14.425466,"82.24,79.27"
2024-05-28_13-20-14.458209,"85.49,67.89"
2024-05-28_13-20-14.490989,"82.24,81.81"
2024-05-28_13-20-14.523799,"104.38,56.57"
2024-05-28_13-20-14.556488,"71.35,55.84"
2024-05-28_13-20-14.589169,"91.19,77.53"
2024-05-28_13-20-14.617960,"94.07,85.16"
2024-05-28_13-20-14.650958,"86.63,83.34"
2024-05-28_13-20-14.683493,"96.50,88.13"
2024-05-28_13-20-14.716258,"78.72,72.54"
2024-05-28_13-20-14.749025,"84.69,79.47"
2024-05-28_13-20-14.781783,"82.96,71.72"
2024-05-28_13-20-14.814485,"83.27,78.22"
2024-05-28_13-20-14.843245,"101.96,55.48"
2024-05-28_13-20-14.875988,"63.72,82.44"
2024-05-28_13-20-14.908909,"77.51,91.97"
2024-05-28_13-20-14.945046,"96.80,96.70"
2024-05-28_13-20-14.974374,"84.66,90.47"
2024-05-28_13-20-15.007079,"81.52,84.06"
2024-05-28_13-20-15.039748,"83.06,69.52"
2024-05-28_13-20-15.068543,"77.70,79.24"
2024-05-28_13-20-15.101271,"85.34,71.58"
2024-05-28_13-20-15.134176,"86.78,82.29"
2024-05-28_13-20-15.166882,"99.68,52.97"
2024-05-28_13-20-15.199568,"69.71,60.90"
2024-05-28_13-20-15.232356,"76.93,80.38"
2024-05-28_13-20-15.265031,"90.92,92.24"
2024-05-28_13-20-15.293774,"78.52,67.15"
2024-05-28_13-20-15.326583,"77.99,76.86"
2024-05-28_13-20-15.359355,"81.68,71.80"
2024-05-28_13-20-15.392121,"77.11,76.25"
2024-05-28_13-20-15.424984,"95.50,83.98"
2024-05-28_13-20-15.457624,"77.31,69.73"
2024-05-28_13-20-15.490330,"107.10,52.02"
2024-05-28_13-20-15.519101,"69.32,71.52"
2024-05-28_13-20-15.551959,"81.99,77.77"
2024-05-28_13-20-15.584687,"94.91,86.59"
2024-05-28_13-20-15.617457,"87.69,68.34"
2024-05-28_13-20-15.650154,"85.64,80.50"
2024-05-28_13-20-15.682916,"84.38,71.74"
2024-05-28_13-20-15.715610,"86.02,80.51"
2024-05-28_13-20-15.744366,"76.00,80.49"
2024-05-28_13-20-15.777141,"83.87,68.14"
2024-05-28_13-20-15.810019,"96.28,51.30"
2024-05-28_13-20-15.842782,"67.46,77.74"
2024-05-28_13-20-15.875525,"89.40,77.24"
2024-05-28_13-20-15.908243,"95.11,96.39"
2024-05-28_13-20-15.940958,"79.92,79.93"
2024-05-28_13-20-15.977937,"84.27,75.84"
2024-05-28_13-20-16.005460,"81.33,72.86"
2024-05-28_13-20-16.037072,"88.61,67.82"
2024-05-28_13-20-16.069829,"107.25,76.08"
2024-05-28_13-20-16.103940,"97.87,75.82"
2024-05-28_13-20-16.133568,"71.35,67.91"
2024-05-28_13-20-16.166203,"93.72,91.03"
2024-05-28_13-20-16.194987,"94.50,76.93"
2024-05-28_13-20-16.227692,"83.87,93.68"
2024-05-28_13-20-16.260535,"79.79,79.10"
2024-05-28_13-20-16.293316,"83.65,82.21"
2024-05-28_13-20-16.326125,"87.48,81.09"
2024-05-28_13-20-16.358866,"84.45,69.16"
2024-05-28_13-20-16.391504,"80.93,82.11"
2024-05-28_13-20-16.420261,"99.88,56.15"
2024-05-28_13-20-16.453134,"81.98,55.68"
2024-05-28_13-20-16.485828,"72.35,80.18"
2024-05-28_13-20-16.518560,"87.62,73.91"
2024-05-28_13-20-16.551326,"101.36,87.35"
2024-05-28_13-20-16.584173,"94.00,88.06"
2024-05-28_13-20-16.616777,"73.78,72.42"
2024-05-28_13-20-16.649498,"88.79,83.03"
2024-05-28_13-20-16.678328,"84.91,71.56"
2024-05-28_13-20-16.711058,"81.33,78.15"
2024-05-28_13-20-16.743870,"104.20,56.10"
2024-05-28_13-20-16.776646,"72.14,57.02"
2024-05-28_13-20-16.809344,"76.14,91.89"
2024-05-28_13-20-16.842077,"94.05,89.23"
2024-05-28_13-20-16.874972,"90.74,76.75"
2024-05-28_13-20-16.903605,"72.78,79.60"
2024-05-28_13-20-16.936405,"82.08,71.02"
2024-05-28_13-20-16.969177,"75.42,80.68"
2024-05-28_13-20-17.001910,"84.55,71.05"
2024-05-28_13-20-17.034736,"86.93,69.76"
2024-05-28_13-20-17.067359,"112.27,53.25"
2024-05-28_13-20-17.100066,"73.54,71.04"
2024-05-28_13-20-17.135225,"76.41,92.60"
2024-05-28_13-20-17.161826,"82.79,98.60"
2024-05-28_13-20-17.194464,"63.39,87.93"
2024-05-28_13-20-17.228220,"81.86,87.39"
2024-05-28_13-20-17.260232,"91.03,72.57"
2024-05-28_13-20-17.292776,"98.41,57.23"
2024-05-28_13-20-17.325358,"93.84,84.20"
2024-05-28_13-20-17.354178,"77.26,70.05"
2024-05-28_13-20-17.386997,"100.87,68.51"
2024-05-28_13-20-17.419735,"75.91,76.48"
2024-05-28_13-20-17.452464,"84.41,79.14"
2024-05-28_13-20-17.485214,"83.79,88.33"
2024-05-28_13-20-17.517940,"76.10,67.15"
2024-05-28_13-20-17.550657,"73.01,81.41"
2024-05-28_13-20-17.579440,"83.86,72.26"
2024-05-28_13-20-17.612277,"82.45,80.69"
2024-05-28_13-20-17.645009,"93.74,71.73"
2024-05-28_13-20-17.677794,"90.66,51.53"
2024-05-28_13-20-17.710489,"94.93,51.86"
2024-05-28_13-20-17.743306,"75.98,80.03"
2024-05-28_13-20-17.776005,"83.85,85.33"
2024-05-28_13-20-17.804743,"92.95,80.87"
2024-05-28_13-20-17.837468,"74.99,69.15"
2024-05-28_13-20-17.870229,"79.54,77.72"
2024-05-28_13-20-17.903009,"87.29,83.19"
2024-05-28_13-20-17.935842,"70.63,69.99"
2024-05-28_13-20-17.968541,"90.75,81.69"
2024-05-28_13-20-18.001303,"84.33,71.65"
2024-05-28_13-20-18.030035,"97.05,45.87"
2024-05-28_13-20-18.062845,"71.60,81.82"
2024-05-28_13-20-18.095595,"82.38,82.97"
2024-05-28_13-20-18.128422,"89.56,86.50"
2024-05-28_13-20-18.161117,"83.68,71.24"
2024-05-28_13-20-18.193813,"90.44,82.56"
2024-05-28_13-20-18.226495,"84.97,78.22"
2024-05-28_13-20-18.255269,"82.22,68.43"
2024-05-28_13-20-18.288029,"82.19,80.38"
2024-05-28_13-20-18.320835,"83.51,71.98"
2024-05-28_13-20-18.353558,"95.97,70.88"
2024-05-28_13-20-18.386348,"69.78,66.89"
2024-05-28_13-20-18.419156,"83.63,80.20"
2024-05-28_13-20-18.451827,"84.97,81.11"
2024-05-28_13-20-18.480534,"85.80,76.32"
2024-05-28_13-20-18.513302,"69.60,72.00"
2024-05-28_13-20-18.546125,"86.65,79.30"
2024-05-28_13-20-18.578925,"80.75,71.71"
2024-05-28_13-20-18.611691,"82.23,78.43"
2024-05-28_13-20-18.644399,"87.89,64.09"
2024-05-28_13-20-18.677142,"90.26,54.89"
2024-05-28_13-20-18.705872,"74.87,54.47"
2024-05-28_13-20-18.738581,"89.83,91.31"
2024-05-28_13-20-18.771380,"95.57,72.14"
2024-05-28_13-20-18.804150,"83.47,82.04"
2024-05-28_13-20-18.836907,"84.36,71.14"
2024-05-28_13-20-18.869697,"83.01,78.00"
2024-05-28_13-20-18.902349,"58.10,70.48"
2024-05-28_13-20-18.931148,"87.17,81.40"
2024-05-28_13-20-18.963892,"88.12,81.84"
2024-05-28_13-20-18.996654,"97.47,53.49"
2024-05-28_13-20-19.029398,"68.46,65.07"
2024-05-28_13-20-19.062222,"93.70,87.98"
2024-05-28_13-20-19.094991,"84.75,70.06"
2024-05-28_13-20-19.127665,"91.31,81.14"
2024-05-28_13-20-19.156431,"72.06,72.99"
2024-05-28_13-20-19.189167,"83.49,75.50"
2024-05-28_13-20-19.221889,"91.02,83.44"
2024-05-28_13-20-19.254698,"76.47,69.88"
2024-05-28_13-20-19.287489,"87.86,68.61"
2024-05-28_13-20-19.320301,"93.66,61.24"
2024-05-28_13-20-19.352989,"66.02,83.45"
2024-05-28_13-20-19.381687,"96.21,96.31"
2024-05-28_13-20-19.414872,"72.82,65.12"
2024-05-28_13-20-19.449481,"93.31,85.34"
2024-05-28_13-20-19.480444,"66.92,90.63"
2024-05-28_13-20-19.512939,"84.98,60.05"
2024-05-28_13-20-19.545690,"85.93,81.64"
2024-05-28_13-20-19.578252,"85.09,67.30"
2024-05-28_13-20-19.610934,"82.01,81.97"
2024-05-28_13-20-19.639718,"98.44,57.25"
2024-05-28_13-20-19.672603,"63.28,80.28"
2024-05-28_13-20-19.705321,"90.00,94.26"
2024-05-28_13-20-19.738039,"93.71,71.07"
2024-05-28_13-20-19.770800,"83.25,78.55"
2024-05-28_13-20-19.803515,"81.37,84.96"
2024-05-28_13-20-19.836206,"73.96,71.04"
2024-05-28_13-20-19.865043,"88.39,79.89"
2024-05-28_13-20-19.897805,"86.62,72.67"
2024-05-28_13-20-19.930583,"90.55,64.63"
2024-05-28_13-20-19.963386,"98.87,56.63"
2024-05-28_13-20-19.996084,"54.74,61.21"
2024-05-28_13-20-20.028811,"93.52,87.25"
2024-05-28_13-20-20.061519,"82.24,66.04"
2024-05-28_13-20-20.090490,"91.58,85.84"
2024-05-28_13-20-20.123096,"81.08,77.48"
2024-05-28_13-20-20.155855,"78.10,68.66"
2024-05-28_13-20-20.188617,"81.49,79.65"
2024-05-28_13-20-20.221381,"84.16,71.68"
2024-05-28_13-20-20.254107,"93.59,82.90"
2024-05-28_13-20-20.286796,"96.93,53.97"
2024-05-28_13-20-20.315960,"66.91,65.44"
2024-05-28_13-20-20.348544,"92.40,99.19"
2024-05-28_13-20-20.381193,"97.47,78.60"
2024-05-28_13-20-20.413986,"73.41,76.56"
2024-05-28_13-20-20.446701,"81.26,77.74"
2024-05-28_13-20-20.479473,"79.74,71.95"
2024-05-28_13-20-20.512112,"80.30,78.13"
2024-05-28_13-20-20.541040,"96.70,84.34"
2024-05-28_13-20-20.573775,"84.47,53.91"
2024-05-28_13-20-20.606447,"87.04,63.65"
2024-05-28_13-20-20.639180,"72.59,75.38"
2024-05-28_13-20-20.672017,"93.16,86.47"
2024-05-28_13-20-20.704699,"80.76,73.42"
2024-05-28_13-20-20.737408,"79.53,75.68"
2024-05-28_13-20-20.766160,"80.01,77.18"
2024-05-28_13-20-20.799021,"85.28,71.32"
2024-05-28_13-20-20.831698,"89.06,81.69"
2024-05-28_13-20-20.864468,"90.02,82.78"
2024-05-28_13-20-20.897288,"86.16,52.42"
2024-05-28_13-20-20.930091,"83.50,69.57"
2024-05-28_13-20-20.962702,"70.22,92.15"
2024-05-28_13-20-20.991464,"96.62,84.42"
2024-05-28_13-20-21.024214,"83.18,71.85"
2024-05-28_13-20-21.056973,"78.24,73.89"
2024-05-28_13-20-21.089866,"90.93,75.19"
2024-05-28_13-20-21.122607,"86.79,83.52"
2024-05-28_13-20-21.155516,"75.74,69.57"
2024-05-28_13-20-21.187975,"83.33,78.35"
2024-05-28_13-20-21.216719,"104.74,55.99"
2024-05-28_13-20-21.249924,"81.72,65.92"
2024-05-28_13-20-21.282536,"85.76,90.39"
2024-05-28_13-20-21.315442,"83.33,65.62"
2024-05-28_13-20-21.348042,"87.01,80.46"
2024-05-28_13-20-21.380583,"54.51,94.21"
2024-05-28_13-20-21.413339,"80.73,81.54"
2024-05-28_13-20-21.461414,"86.12,79.62"
2024-05-28_13-20-21.475283,"85.51,68.15"
2024-05-28_13-20-21.507615,"82.73,68.42"
2024-05-28_13-20-21.540450,"94.35,72.71"
2024-05-28_13-20-21.573169,"81.16,67.54"
2024-05-28_13-20-21.605879,"80.50,81.55"
2024-05-28_13-20-21.638592,"90.28,73.56"
2024-05-28_13-20-21.667346,"82.32,79.78"
2024-05-28_13-20-21.700194,"99.56,84.43"
2024-05-28_13-20-21.732846,"70.87,71.17"
2024-05-28_13-20-21.765617,"86.77,79.86"
2024-05-28_13-20-21.798369,"82.77,70.90"
2024-05-28_13-20-21.831152,"89.92,63.27"
2024-05-28_13-20-21.863848,"99.57,74.17"
2024-05-28_13-20-21.892580,"55.29,58.57"
2024-05-28_13-20-21.925516,"94.36,92.63"
2024-05-28_13-20-21.958398,"86.20,87.88"
2024-05-28_13-20-21.991130,"65.78,91.74"
2024-05-28_13-20-22.023700,"74.70,82.06"
2024-05-28_13-20-22.056434,"67.80,68.48"
2024-05-28_13-20-22.089128,"83.19,79.44"
2024-05-28_13-20-22.117946,"79.27,75.12"
2024-05-28_13-20-22.150802,"80.30,79.46"
2024-05-28_13-20-22.192243,"74.94,82.69"
2024-05-28_13-20-22.216387,"102.57,101.25"
2024-05-28_13-20-22.249099,"77.46,66.65"
2024-05-28_13-20-22.281797,"77.11,79.86"
2024-05-28_13-20-22.314479,"73.89,75.61"
2024-05-28_13-20-22.343153,"72.05,77.50"
2024-05-28_13-20-22.375916,"86.57,71.33"
2024-05-28_13-20-22.408745,"81.44,77.00"
2024-05-28_13-20-22.441468,"96.01,71.69"
2024-05-28_13-20-22.474334,"89.42,55.27"
2024-05-28_13-20-22.507111,"76.72,61.32"
2024-05-28_13-20-22.539732,"91.08,88.92"
2024-05-28_13-20-22.572479,"83.97,90.89"
2024-05-28_13-20-22.601215,"81.08,81.84"
2024-05-28_13-20-22.633981,"80.67,72.73"
2024-05-28_13-20-22.666807,"82.22,78.55"
2024-05-28_13-20-22.699626,"78.26,74.74"
2024-05-28_13-20-22.732298,"88.51,68.92"
2024-05-28_13-20-22.765031,"88.74,68.95"
2024-05-28_13-20-22.797719,"91.83,53.40"
2024-05-28_13-20-22.826503,"71.26,51.30"
2024-05-28_13-20-22.859264,"90.79,90.71"
2024-05-28_13-20-22.892066,"96.12,79.16"
2024-05-28_13-20-22.925002,"89.16,81.79"
2024-05-28_13-20-22.957651,"88.92,80.16"
2024-05-28_13-20-22.990322,"73.73,78.96"
2024-05-28_13-20-23.023030,"89.62,82.84"
2024-05-28_13-20-23.051853,"59.92,70.18"
2024-05-28_13-20-23.084835,"88.29,68.35"
2024-05-28_13-20-23.117378,"82.74,82.25"
2024-05-28_13-20-23.150076,"81.39,62.85"
2024-05-28_13-20-23.182907,"96.32,91.95"
2024-05-28_13-20-23.215618,"84.03,73.37"
2024-05-28_13-20-23.248306,"80.65,82.33"
2024-05-28_13-20-23.277064,"74.49,72.99"
2024-05-28_13-20-23.309900,"87.78,80.86"
2024-05-28_13-20-23.342650,"88.55,80.12"
2024-05-28_13-20-23.375384,"85.15,68.38"
2024-05-28_13-20-23.408439,"78.04,67.77"
2024-05-28_13-20-23.440888,"85.03,93.19"
2024-05-28_13-20-23.473623,"80.64,81.21"
2024-05-28_13-20-23.502354,"96.33,82.69"
2024-05-28_13-20-23.535094,"82.81,89.25"
2024-05-28_13-20-23.567888,"89.30,78.78"
2024-05-28_13-20-23.600706,"93.10,84.55"
2024-05-28_13-20-23.633550,"89.32,71.24"
2024-05-28_13-20-23.666185,"88.91,81.24"
2024-05-28_13-20-23.698926,"84.12,72.29"
2024-05-28_13-20-23.727684,"103.74,63.96"
2024-05-28_13-20-23.760514,"74.04,93.56"
2024-05-28_13-20-23.793220,"86.15,80.16"
2024-05-28_13-20-23.825947,"94.25,81.74"
2024-05-28_13-20-23.858675,"83.29,70.93"
2024-05-28_13-20-23.891536,"78.62,83.45"
2024-05-28_13-20-23.924212,"84.38,77.70"
2024-05-28_13-20-23.952941,"78.17,68.54"
2024-05-28_13-20-23.985740,"83.50,80.95"
2024-05-28_13-20-24.018522,"85.51,71.93"
2024-05-28_13-20-24.051239,"96.28,54.35"
2024-05-28_13-20-24.084005,"68.23,88.46"
2024-05-28_13-20-24.116752,"82.78,78.47"
2024-05-28_13-20-24.149592,"86.20,81.19"
2024-05-28_13-20-24.178221,"88.51,76.63"
2024-05-28_13-20-24.210972,"70.62,72.26"
2024-05-28_13-20-24.243750,"87.84,78.18"
2024-05-28_13-20-24.276612,"80.90,71.94"
2024-05-28_13-20-24.309321,"82.99,62.38"
2024-05-28_13-20-24.342068,"92.04,72.18"
2024-05-28_13-20-24.374759,"89.03,55.18"
2024-05-28_13-20-24.403632,"70.20,83.26"
2024-05-28_13-20-24.436269,"90.71,87.99"
2024-05-28_13-20-24.469029,"84.88,74.68"
2024-05-28_13-20-24.501784,"82.25,80.14"
2024-05-28_13-20-24.534549,"74.79,70.54"
2024-05-28_13-20-24.567354,"83.60,78.65"
2024-05-28_13-20-24.600067,"80.80,71.31"
2024-05-28_13-20-24.628778,"87.28,82.30"
2024-05-28_13-20-24.661571,"103.68,68.98"
2024-05-28_13-20-24.694328,"80.85,53.32"
2024-05-28_13-20-24.727084,"63.81,76.20"
2024-05-28_13-20-24.759838,"102.47,84.45"
2024-05-28_13-20-24.792627,"85.10,69.72"
2024-05-28_13-20-24.825381,"95.88,81.74"
2024-05-28_13-20-24.858038,"77.04,72.41"
2024-05-28_13-20-24.886815,"73.56,76.13"
2024-05-28_13-20-24.919668,"93.51,83.24"
2024-05-28_13-20-24.952392,"78.24,70.58"
2024-05-28_13-20-24.985118,"102.39,68.63"
2024-05-28_13-20-25.017899,"77.00,54.86"
2024-05-28_13-20-25.050633,"79.11,72.22"
2024-05-28_13-20-25.083331,"85.02,84.75"
2024-05-28_13-20-25.113546,"78.21,68.46"
2024-05-28_13-20-25.144950,"77.64,88.64"
2024-05-28_13-20-25.177686,"79.94,78.62"
2024-05-28_13-20-25.210381,"72.12,81.24"
2024-05-28_13-20-25.243173,"88.30,80.56"
2024-05-28_13-20-25.275935,"83.74,68.95"
2024-05-28_13-20-25.308636,"93.17,53.54"
2024-05-28_13-20-25.337389,"64.39,94.32"
2024-05-28_13-20-25.370173,"82.10,73.23"
2024-05-28_13-20-25.402995,"83.49,85.09"
2024-05-28_13-20-25.435716,"83.78,78.01"
2024-05-28_13-20-25.468549,"84.40,76.92"
2024-05-28_13-20-25.501217,"89.68,84.46"
2024-05-28_13-20-25.533950,"74.95,69.94"
2024-05-28_13-20-25.562766,"88.00,81.26"
2024-05-28_13-20-25.595544,"88.80,56.20"
2024-05-28_13-20-25.628264,"83.67,72.09"
2024-05-28_13-20-25.661003,"75.62,82.93"
2024-05-28_13-20-25.693741,"100.62,82.51"
2024-05-28_13-20-25.726518,"72.41,72.51"
2024-05-28_13-20-25.759238,"78.25,75.17"
2024-05-28_13-20-25.788016,"87.27,81.87"
2024-05-28_13-20-25.820914,"83.06,80.46"
2024-05-28_13-20-25.853638,"75.89,76.99"
2024-05-28_13-20-25.886337,"99.03,64.68"
2024-05-28_13-20-25.919053,"109.46,56.92"
2024-05-28_13-20-25.951806,"79.10,57.20"
2024-05-28_13-20-25.984479,"76.69,70.05"
2024-05-28_13-20-26.013264,"78.19,79.37"
2024-05-28_13-20-26.046043,"72.30,69.75"
2024-05-28_13-20-26.078868,"84.80,86.08"
2024-05-28_13-20-26.111633,"79.09,73.17"
2024-05-28_13-20-26.144408,"85.48,81.65"
2024-05-28_13-20-26.177088,"82.83,70.93"
2024-05-28_13-20-26.212790,"80.59,77.77"
2024-05-28_13-20-26.269111,"84.19,72.16"
2024-05-28_13-20-26.275831,"77.39,72.67"
2024-05-28_13-20-26.308050,"84.66,80.01"
2024-05-28_13-20-26.337050,"87.09,71.33"
2024-05-28_13-20-26.369674,"98.09,87.36"
2024-05-28_13-20-26.402367,"79.84,79.49"
2024-05-28_13-20-26.435090,"81.87,68.91"
2024-05-28_13-20-26.463857,"80.48,79.31"
2024-05-28_13-20-26.496643,"86.41,71.91"
2024-05-28_13-20-26.529342,"92.26,54.79"
2024-05-28_13-20-26.562120,"85.29,82.70"
2024-05-28_13-20-26.594956,"56.17,78.75"
2024-05-28_13-20-26.627724,"101.66,96.67"
2024-05-28_13-20-26.660917,"81.68,85.68"
2024-05-28_13-20-26.689126,"76.40,74.79"
2024-05-28_13-20-26.722142,"84.84,79.52"
2024-05-28_13-20-26.754796,"73.48,71.15"
2024-05-28_13-20-26.787489,"82.25,54.78"
2024-05-28_13-20-26.820186,"95.21,72.60"
2024-05-28_13-20-26.852963,"88.63,55.78"
2024-05-28_13-20-26.885706,"78.85,74.34"
2024-05-28_13-20-26.914440,"83.57,85.66"
2024-05-28_13-20-26.947308,"91.90,86.28"
2024-05-28_13-20-26.980046,"97.20,85.31"
2024-05-28_13-20-27.012831,"92.96,75.32"
2024-05-28_13-20-27.045538,"90.09,80.82"
2024-05-28_13-20-27.078269,"87.47,70.74"
2024-05-28_13-20-27.110969,"86.74,81.77"
2024-05-28_13-20-27.139727,"89.07,68.98"
2024-05-28_13-20-27.172429,"96.56,52.20"
2024-05-28_13-20-27.205212,"68.94,50.73"
2024-05-28_13-20-27.237988,"96.44,87.60"
2024-05-28_13-20-27.270733,"84.55,65.14"
2024-05-28_13-20-27.303502,"81.03,79.53"
2024-05-28_13-20-27.336256,"75.72,73.30"
2024-05-28_13-20-27.364974,"83.10,75.27"
2024-05-28_13-20-27.397758,"88.72,82.90"
2024-05-28_13-20-27.430974,"77.81,70.18"
2024-05-28_13-20-27.463268,"86.70,68.06"
2024-05-28_13-20-27.496002,"83.82,66.87"
2024-05-28_13-20-27.528750,"77.69,81.82"
2024-05-28_13-20-27.561537,"95.28,87.69"
2024-05-28_13-20-27.594249,"84.13,77.86"
2024-05-28_13-20-27.623110,"84.53,77.05"
2024-05-28_13-20-27.655773,"79.29,72.28"
2024-05-28_13-20-27.688557,"79.58,80.92"
2024-05-28_13-20-27.721335,"87.43,80.85"
2024-05-28_13-20-27.754098,"85.84,68.19"
2024-05-28_13-20-27.786811,"95.04,49.94"
2024-05-28_13-20-27.819517,"78.29,80.17"
2024-05-28_13-20-27.848312,"80.06,84.62"
2024-05-28_13-20-27.881078,"84.03,80.97"
2024-05-28_13-20-27.913826,"76.39,66.22"
2024-05-28_13-20-27.946583,"82.03,75.45"
2024-05-28_13-20-27.979360,"89.07,83.09"
2024-05-28_13-20-28.012131,"73.66,69.50"
2024-05-28_13-20-28.044819,"88.92,80.29"
2024-05-28_13-20-28.073674,"82.32,71.17"
2024-05-28_13-20-28.106439,"100.21,46.46"
2024-05-28_13-20-28.139142,"73.78,84.44"
2024-05-28_13-20-28.171908,"93.92,76.36"
2024-05-28_13-20-28.204678,"84.51,71.87"
2024-05-28_13-20-28.237383,"81.62,77.30"
2024-05-28_13-20-28.270085,"86.23,82.54"
2024-05-28_13-20-28.298854,"80.69,78.61"
2024-05-28_13-20-28.331627,"84.40,67.68"
2024-05-28_13-20-28.364405,"81.68,81.35"
2024-05-28_13-20-28.397194,"102.10,56.43"
2024-05-28_13-20-28.429946,"80.91,55.16"
2024-05-28_13-20-28.462714,"71.30,73.89"
2024-05-28_13-20-28.495361,"91.07,72.78"
2024-05-28_13-20-28.524187,"94.51,71.45"
2024-05-28_13-20-28.556923,"102.98,90.28"
2024-05-28_13-20-28.589737,"77.16,72.16"
2024-05-28_13-20-28.623731,"83.83,78.86"
2024-05-28_13-20-28.655386,"83.24,71.30"
2024-05-28_13-20-28.688021,"86.06,63.98"
2024-05-28_13-20-28.720692,"104.97,56.52"
2024-05-28_13-20-28.749429,"67.97,57.07"
2024-05-28_13-20-28.782199,"78.28,70.97"
2024-05-28_13-20-28.814986,"97.47,88.63"
2024-05-28_13-20-28.847738,"81.15,75.05"
2024-05-28_13-20-28.880503,"77.33,78.84"
2024-05-28_13-20-28.913274,"86.02,70.21"
2024-05-28_13-20-28.945981,"77.99,78.79"
2024-05-28_13-20-28.974726,"67.84,71.21"
2024-05-28_13-20-29.007508,"87.71,82.77"
2024-05-28_13-20-29.040281,"103.71,51.54"
2024-05-28_13-20-29.073033,"66.56,79.88"
2024-05-28_13-20-29.105827,"91.42,89.81"
2024-05-28_13-20-29.138563,"105.79,93.56"
2024-05-28_13-20-29.171256,"77.96,81.13"
2024-05-28_13-20-29.200022,"80.67,77.57"
2024-05-28_13-20-29.232787,"86.83,71.59"
2024-05-28_13-20-29.265586,"80.04,76.97"
2024-05-28_13-20-29.298323,"96.19,72.70"
2024-05-28_13-20-29.331115,"86.43,70.94"
2024-05-28_13-20-29.363938,"97.40,53.09"
2024-05-28_13-20-29.396527,"67.09,81.22"
2024-05-28_13-20-29.425366,"90.37,91.65"
2024-05-28_13-20-29.458189,"88.72,77.13"
2024-05-28_13-20-29.490903,"88.84,76.10"
2024-05-28_13-20-29.523616,"84.32,81.46"
2024-05-28_13-20-29.556361,"80.41,70.94"
2024-05-28_13-20-29.589140,"88.46,81.92"
2024-05-28_13-20-29.621890,"89.27,81.52"
2024-05-28_13-20-29.650604,"87.31,51.69"
2024-05-28_13-20-29.683370,"88.59,51.12"
2024-05-28_13-20-29.716107,"69.89,84.39"
2024-05-28_13-20-29.748934,"97.51,85.88"
2024-05-28_13-20-29.781665,"72.03,71.43"
2024-05-28_13-20-29.814458,"80.59,75.34"
2024-05-28_13-20-29.847125,"90.08,75.52"
2024-05-28_13-20-29.875854,"85.91,83.41"
2024-05-28_13-20-29.908650,"76.04,70.79"
2024-05-28_13-20-29.941611,"89.39,81.12"
2024-05-28_13-20-29.989289,"90.25,68.53"
2024-05-28_13-20-30.007068,"75.41,69.48"
2024-05-28_13-20-30.041639,"76.84,63.82"
2024-05-28_13-20-30.073742,"89.26,56.93"
2024-05-28_13-20-30.101349,"80.05,95.11"
2024-05-28_13-20-30.134045,"70.82,78.67"
2024-05-28_13-20-30.166719,"87.74,83.07"
2024-05-28_13-20-30.199488,"86.80,79.37"
2024-05-28_13-20-30.232247,"83.78,67.88"
2024-05-28_13-20-30.265060,"80.04,68.40"
2024-05-28_13-20-30.297721,"101.03,57.12"
2024-05-28_13-20-30.326505,"63.15,57.39"
2024-05-28_13-20-30.359277,"92.09,93.37"
2024-05-28_13-20-30.392054,"78.15,67.99"
2024-05-28_13-20-30.424789,"90.53,81.91"
2024-05-28_13-20-30.457519,"81.24,83.41"
2024-05-28_13-20-30.490277,"79.82,70.91"
2024-05-28_13-20-30.522999,"88.47,79.90"
2024-05-28_13-20-30.555729,"82.20,72.04"
2024-05-28_13-20-30.584658,"88.22,63.90"
2024-05-28_13-20-30.617320,"89.68,62.86"
2024-05-28_13-20-30.650073,"55.10,79.40"
2024-05-28_13-20-30.682796,"90.00,86.20"
2024-05-28_13-20-30.715633,"89.17,91.01"
2024-05-28_13-20-30.748299,"84.83,82.81"
2024-05-28_13-20-30.780999,"82.47,77.51"
2024-05-28_13-20-30.809778,"84.91,68.36"
2024-05-28_13-20-30.843885,"82.65,79.79"
2024-05-28_13-20-30.879532,"88.12,84.25"
2024-05-28_13-20-30.908180,"77.90,83.58"
2024-05-28_13-20-30.940933,"78.46,93.02"
2024-05-28_13-20-30.973590,"75.29,72.26"
2024-05-28_13-20-31.006303,"106.18,79.40"
2024-05-28_13-20-31.035081,"83.17,91.61"
2024-05-28_13-20-31.067841,"78.67,74.00"
2024-05-28_13-20-31.100681,"86.15,78.41"
2024-05-28_13-20-31.133406,"80.27,71.94"
2024-05-28_13-20-31.166276,"89.16,74.26"
2024-05-28_13-20-31.198908,"93.67,71.46"
2024-05-28_13-20-31.231569,"93.61,55.42"
2024-05-28_13-20-31.260340,"75.57,52.41"
2024-05-28_13-20-31.293088,"83.72,84.11"
2024-05-28_13-20-31.325895,"74.27,72.58"
2024-05-28_13-20-31.358636,"83.33,78.86"
2024-05-28_13-20-31.391414,"74.57,71.15"
2024-05-28_13-20-31.424149,"84.64,78.14"
2024-05-28_13-20-31.456869,"80.76,70.85"
2024-05-28_13-20-31.485838,"86.41,81.86"
2024-05-28_13-20-31.518515,"101.32,71.27"
2024-05-28_13-20-31.551172,"83.80,84.06"
2024-05-28_13-20-31.583932,"63.34,91.04"
2024-05-28_13-20-31.616719,"96.83,90.37"
2024-05-28_13-20-31.649490,"94.16,85.10"
2024-05-28_13-20-31.682157,"84.17,79.33"
2024-05-28_13-20-31.710943,"77.06,72.19"
2024-05-28_13-20-31.743723,"74.46,76.21"
2024-05-28_13-20-31.776424,"95.07,83.73"
2024-05-28_13-20-31.809229,"75.56,69.95"
2024-05-28_13-20-31.842010,"102.80,51.50"
2024-05-28_13-20-31.874754,"78.40,54.25"
2024-05-28_13-20-31.907434,"84.91,80.79"
2024-05-28_13-20-31.936195,"93.03,88.81"
2024-05-28_13-20-31.969046,"76.81,67.13"
2024-05-28_13-20-32.001791,"84.55,80.15"
2024-05-28_13-20-32.034521,"82.41,73.00"
2024-05-28_13-20-32.067282,"85.48,81.37"
2024-05-28_13-20-32.100199,"88.40,81.11"
2024-05-28_13-20-32.132763,"83.02,68.97"
2024-05-28_13-20-32.161519,"95.65,52.11"
2024-05-28_13-20-32.194353,"71.18,91.73"
2024-05-28_13-20-32.227014,"92.07,78.84"
2024-05-28_13-20-32.259790,"93.73,72.55"
2024-05-28_13-20-32.292538,"85.76,75.93"
2024-05-28_13-20-32.325355,"87.35,76.35"
2024-05-28_13-20-32.358062,"83.10,83.82"
2024-05-28_13-20-32.386801,"73.85,69.71"
2024-05-28_13-20-32.419595,"90.45,68.03"
2024-05-28_13-20-32.452337,"85.30,56.63"
2024-05-28_13-20-32.485142,"76.43,70.61"
2024-05-28_13-20-32.517958,"89.92,92.87"
2024-05-28_13-20-32.550644,"93.29,78.78"
2024-05-28_13-20-32.583324,"97.87,83.74"
2024-05-28_13-20-32.612070,"81.23,73.16"
2024-05-28_13-20-32.644823,"84.98,81.46"
2024-05-28_13-20-32.677603,"85.60,79.96"
2024-05-28_13-20-32.710360,"83.73,68.03"
2024-05-28_13-20-32.743489,"82.59,81.90"
2024-05-28_13-20-32.775995,"94.27,70.86"
2024-05-28_13-20-32.808825,"78.53,73.76"
2024-05-28_13-20-32.837442,"79.28,71.31"
2024-05-28_13-20-32.870227,"96.61,75.09"
2024-05-28_13-20-32.902969,"78.06,82.13"
2024-05-28_13-20-32.935691,"98.82,86.99"
2024-05-28_13-20-32.968496,"82.12,72.07"
2024-05-28_13-20-33.001208,"86.66,80.08"
2024-05-28_13-20-33.033892,"84.01,71.83"
2024-05-28_13-20-33.062722,"90.41,64.27"
2024-05-28_13-20-33.095622,"90.50,58.07"
2024-05-28_13-20-33.128236,"62.51,66.29"
2024-05-28_13-20-33.160944,"91.96,89.23"
2024-05-28_13-20-33.193681,"91.16,72.58"
2024-05-28_13-20-33.226480,"84.56,84.82"
2024-05-28_13-20-33.259190,"83.51,78.10"
2024-05-28_13-20-33.287922,"85.04,68.25"
2024-05-28_13-20-33.320681,"81.15,79.92"
2024-05-28_13-20-33.353436,"86.62,72.22"
2024-05-28_13-20-33.386182,"95.48,53.52"
2024-05-28_13-20-33.418957,"73.69,54.40"
2024-05-28_13-20-33.451940,"79.73,76.44"
2024-05-28_13-20-33.484656,"101.58,81.92"
2024-05-28_13-20-33.513278,"94.95,85.25"
2024-05-28_13-20-33.545994,"90.88,76.19"
2024-05-28_13-20-33.578733,"86.25,78.53"
2024-05-28_13-20-33.611564,"76.58,71.22"
2024-05-28_13-20-33.644287,"80.90,77.37"
2024-05-28_13-20-33.677085,"94.09,72.41"
2024-05-28_13-20-33.709777,"85.10,54.55"
2024-05-28_13-20-33.742495,"71.45,52.82"
2024-05-28_13-20-33.771240,"91.66,85.34"
2024-05-28_13-20-33.804060,"87.01,88.12"
2024-05-28_13-20-33.836817,"85.58,78.32"
2024-05-28_13-20-33.869598,"78.52,71.59"
2024-05-28_13-20-33.902360,"85.90,78.76"
2024-05-28_13-20-33.935052,"80.62,71.26"
2024-05-28_13-20-33.967788,"87.16,82.43"
2024-05-28_13-20-33.996632,"104.16,51.95"
2024-05-28_13-20-34.029546,"78.15,53.43"
2024-05-28_13-20-34.062147,"76.21,76.08"
2024-05-28_13-20-34.094885,"99.71,92.83"
2024-05-28_13-20-34.127692,"75.08,68.19"
2024-05-28_13-20-34.160361,"75.58,78.47"
2024-05-28_13-20-34.193066,"83.11,72.92"
2024-05-28_13-20-34.221843,"77.32,75.51"
2024-05-28_13-20-34.254667,"94.20,83.74"
2024-05-28_13-20-34.287406,"75.93,53.51"
2024-05-28_13-20-34.320258,"106.03,52.16"
2024-05-28_13-20-34.352922,"66.14,74.26"
2024-05-28_13-20-34.385633,"96.45,81.90"
2024-05-28_13-20-34.418327,"92.64,91.86"
2024-05-28_13-20-34.447124,"83.43,76.82"
2024-05-28_13-20-34.479934,"76.02,79.28"
2024-05-28_13-20-34.512712,"80.09,71.48"
2024-05-28_13-20-34.545430,"86.65,81.86"
2024-05-28_13-20-34.578263,"89.96,68.84"
2024-05-28_13-20-34.611002,"98.99,52.69"
2024-05-28_13-20-34.643656,"80.06,79.59"
2024-05-28_13-20-34.672415,"87.71,92.82"
2024-05-28_13-20-34.705215,"96.77,86.42"
2024-05-28_13-20-34.737996,"96.24,84.73"
2024-05-28_13-20-34.770714,"78.19,75.11"
2024-05-28_13-20-34.803506,"92.43,77.60"
2024-05-28_13-20-34.836215,"86.75,83.41"
2024-05-28_13-20-34.868923,"76.75,69.56"
2024-05-28_13-20-34.897736,"88.74,81.39"
2024-05-28_13-20-34.930457,"90.16,56.25"
2024-05-28_13-20-34.963259,"70.94,47.46"
2024-05-28_13-20-34.995991,"91.93,91.67"
2024-05-28_13-20-35.028778,"85.03,65.21"
2024-05-28_13-20-35.061517,"78.90,81.10"
2024-05-28_13-20-35.094206,"72.76,74.16"
2024-05-28_13-20-35.123043,"87.23,81.27"
2024-05-28_13-20-35.155734,"86.23,79.89"
2024-05-28_13-20-35.188495,"83.98,69.28"
2024-05-28_13-20-35.221334,"80.87,68.75"
2024-05-28_13-20-35.254072,"94.87,74.55"
2024-05-28_13-20-35.286809,"60.19,77.83"
2024-05-28_13-20-35.319507,"86.40,83.70"
2024-05-28_13-20-35.348268,"82.97,83.35"
2024-05-28_13-20-35.381043,"87.43,78.78"
2024-05-28_13-20-35.413827,"84.70,83.68"
2024-05-28_13-20-35.446563,"81.61,69.99"
2024-05-28_13-20-35.479491,"88.89,81.05"
2024-05-28_13-20-35.512166,"86.20,72.98"
2024-05-28_13-20-35.544852,"96.73,46.55"
2024-05-28_13-20-35.573542,"67.63,86.86"
2024-05-28_13-20-35.606415,"83.89,77.95"
2024-05-28_13-20-35.639101,"94.14,89.53"
2024-05-28_13-20-35.710581,"86.65,83.35"
2024-05-28_13-20-35.711172,"79.81,85.81"
2024-05-28_13-20-35.737466,"94.15,56.91"
2024-05-28_13-20-35.770123,"83.83,51.28"
2024-05-28_13-20-35.798890,"81.35,81.20"
2024-05-28_13-20-35.831672,"101.12,72.62"
2024-05-28_13-20-35.864408,"82.71,55.04"
2024-05-28_13-20-35.897135,"72.98,71.77"
2024-05-28_13-20-35.929897,"91.72,74.13"
2024-05-28_13-20-35.962676,"82.80,71.61"
2024-05-28_13-20-35.995359,"96.48,86.75"
2024-05-28_13-20-36.024313,"77.20,72.22"
2024-05-28_13-20-36.056940,"82.13,79.37"
2024-05-28_13-20-36.089651,"83.77,71.85"
2024-05-28_13-20-36.122432,"82.26,78.21"
2024-05-28_13-20-36.155189,"104.57,55.50"
2024-05-28_13-20-36.187941,"63.98,84.29"
2024-05-28_13-20-36.220637,"77.93,90.96"
2024-05-28_13-20-36.249406,"95.19,88.96"
2024-05-28_13-20-36.282146,"85.45,87.43"
2024-05-28_13-20-36.314955,"79.29,77.41"
2024-05-28_13-20-36.347708,"84.78,69.81"
2024-05-28_13-20-36.380486,"79.68,80.22"
2024-05-28_13-20-36.413238,"86.46,72.02"
2024-05-28_13-20-36.445942,"96.25,82.69"
2024-05-28_13-20-36.474690,"97.94,51.43"
2024-05-28_13-20-36.507524,"60.93,56.82"
2024-05-28_13-20-36.540226,"93.30,90.10"
2024-05-28_13-20-36.573154,"94.84,74.49"
2024-05-28_13-20-36.605858,"66.48,87.89"
2024-05-28_13-20-36.638578,"77.65,86.40"
2024-05-28_13-20-36.671256,"80.71,70.79"
2024-05-28_13-20-36.703945,"82.02,76.22"
2024-05-28_13-20-36.732753,"95.89,84.13"
2024-05-28_13-20-36.765518,"87.18,53.76"
2024-05-28_13-20-36.798298,"78.38,74.52"
2024-05-28_13-20-36.831079,"84.72,85.78"
2024-05-28_13-20-36.863843,"95.25,80.55"
2024-05-28_13-20-36.896495,"81.11,80.90"
2024-05-28_13-20-36.929231,"71.29,73.21"
2024-05-28_13-20-36.958016,"80.72,77.76"
2024-05-28_13-20-36.990799,"86.57,71.04"
2024-05-28_13-20-37.023654,"88.84,81.76"
2024-05-28_13-20-37.056390,"89.20,68.45"
2024-05-28_13-20-37.089134,"94.88,52.27"
2024-05-28_13-20-37.121859,"69.85,51.48"
2024-05-28_13-20-37.154513,"93.27,87.04"
2024-05-28_13-20-37.183322,"83.59,66.90"
2024-05-28_13-20-37.216193,"84.34,80.99"
2024-05-28_13-20-37.248867,"76.20,73.58"
2024-05-28_13-20-37.281634,"83.60,75.81"
2024-05-28_13-20-37.314401,"92.44,83.24"
2024-05-28_13-20-37.347151,"77.27,69.75"
2024-05-28_13-20-37.379830,"102.65,51.42"
2024-05-28_13-20-37.408633,"80.33,52.71"
2024-05-28_13-20-37.441428,"77.99,71.73"
2024-05-28_13-20-37.474146,"89.38,88.41"
2024-05-28_13-20-37.506877,"85.82,69.38"
2024-05-28_13-20-37.539699,"72.88,80.67"
2024-05-28_13-20-37.572386,"83.40,70.93"
2024-05-28_13-20-37.605092,"84.39,81.03"
2024-05-28_13-20-37.633931,"89.23,80.80"
2024-05-28_13-20-37.666651,"84.64,69.15"
2024-05-28_13-20-37.699501,"93.51,82.36"
2024-05-28_13-20-37.732222,"68.21,88.68"
2024-05-28_13-20-37.764950,"92.98,75.66"
2024-05-28_13-20-37.797726,"93.52,71.03"
2024-05-28_13-20-37.830394,"87.67,76.23"
2024-05-28_13-20-37.859248,"89.61,77.00"
2024-05-28_13-20-37.892029,"80.74,83.88"
2024-05-28_13-20-37.924727,"76.64,70.27"
2024-05-28_13-20-37.957587,"89.43,81.67"
2024-05-28_13-20-37.990326,"88.66,56.07"
2024-05-28_13-20-38.023031,"81.55,72.14"
2024-05-28_13-20-38.055710,"89.28,72.40"
2024-05-28_13-20-38.084684,"93.18,88.94"
2024-05-28_13-20-38.117272,"85.93,90.29"
2024-05-28_13-20-38.150003,"78.04,77.11"
2024-05-28_13-20-38.182752,"93.34,81.55"
2024-05-28_13-20-38.215570,"85.75,79.57"
2024-05-28_13-20-38.248306,"84.42,68.82"
2024-05-28_13-20-38.280967,"82.03,68.89"
2024-05-28_13-20-38.309754,"107.14,55.93"
2024-05-28_13-20-38.342667,"67.50,79.28"
2024-05-28_13-20-38.376943,"86.79,85.13"
2024-05-28_13-20-38.408303,"80.93,64.64"
2024-05-28_13-20-38.440967,"64.00,85.28"
2024-05-28_13-20-38.473590,"85.07,90.93"
2024-05-28_13-20-38.506277,"71.74,70.61"
2024-05-28_13-20-38.535068,"87.57,80.38"
2024-05-28_13-20-38.567803,"87.41,72.76"
2024-05-28_13-20-38.600694,"87.80,45.80"
2024-05-28_13-20-38.633410,"89.76,85.43"
2024-05-28_13-20-38.666203,"55.32,80.72"
2024-05-28_13-20-38.698867,"89.97,87.47"
2024-05-28_13-20-38.731551,"79.04,93.58"
2024-05-28_13-20-38.760314,"89.54,82.17"
2024-05-28_13-20-38.793084,"83.77,77.27"
2024-05-28_13-20-38.825876,"86.43,68.22"
2024-05-28_13-20-38.858623,"82.63,80.81"
2024-05-28_13-20-38.891439,"86.50,72.36"
2024-05-28_13-20-38.924219,"104.64,53.98"
2024-05-28_13-20-38.956843,"78.44,55.53"
2024-05-28_13-20-38.985615,"74.41,77.44"
2024-05-28_13-20-39.018349,"97.47,78.97"
2024-05-28_13-20-39.051148,"82.74,80.19"
2024-05-28_13-20-39.083927,"68.13,74.21"
2024-05-28_13-20-39.116717,"87.00,78.60"
2024-05-28_13-20-39.149469,"78.27,71.44"
2024-05-28_13-20-39.182143,"82.07,77.68"
2024-05-28_13-20-39.210860,"93.44,71.14"
2024-05-28_13-20-39.243634,"89.71,55.57"
2024-05-28_13-20-39.276433,"69.51,90.99"
2024-05-28_13-20-39.309173,"91.58,83.09"
2024-05-28_13-20-39.341954,"88.17,90.47"
2024-05-28_13-20-39.374713,"86.09,78.53"
2024-05-28_13-20-39.407425,"77.15,70.55"
2024-05-28_13-20-39.436192,"84.14,78.68"
2024-05-28_13-20-39.468925,"83.07,72.03"
2024-05-28_13-20-39.501710,"87.58,82.27"
2024-05-28_13-20-39.534471,"96.00,68.97"
2024-05-28_13-20-39.567243,"83.12,54.62"
2024-05-28_13-20-39.600016,"63.98,73.53"
2024-05-28_13-20-39.632684,"92.49,86.41"
2024-05-28_13-20-39.665416,"86.97,69.51"
2024-05-28_13-20-39.694217,"88.12,77.64"
2024-05-28_13-20-39.726967,"80.71,72.05"
2024-05-28_13-20-39.759770,"75.75,76.10"
2024-05-28_13-20-39.792515,"94.71,83.82"
2024-05-28_13-20-39.825308,"76.16,69.73"
2024-05-28_13-20-39.857992,"96.34,52.55"
2024-05-28_13-20-39.890700,"74.77,62.24"
2024-05-28_13-20-39.919543,"79.33,84.47"
2024-05-28_13-20-39.952314,"93.73,85.81"
2024-05-28_13-20-39.985041,"76.35,67.00"
2024-05-28_13-20-40.017821,"74.35,77.44"
2024-05-28_13-20-40.050584,"84.84,71.56"
2024-05-28_13-20-40.083285,"86.64,81.54"
2024-05-28_13-20-40.115998,"89.34,81.35"
2024-05-28_13-20-40.144889,"82.08,68.64"
2024-05-28_13-20-40.177563,"88.19,51.30"
2024-05-28_13-20-40.210368,"69.24,93.86"
2024-05-28_13-20-40.243134,"90.32,74.66"
2024-05-28_13-20-40.275883,"91.68,72.95"
2024-05-28_13-20-40.308594,"86.63,75.77"
2024-05-28_13-20-40.341308,"87.37,74.88"
2024-05-28_13-20-40.370103,"82.07,83.34"
2024-05-28_13-20-40.402876,"76.06,69.40"
2024-05-28_13-20-40.452441,"84.70,75.13"
2024-05-28_13-20-40.468420,"72.89,80.63"
2024-05-28_13-20-40.501249,"73.49,72.23"
2024-05-28_13-20-40.533853,"91.80,80.82"
2024-05-28_13-20-40.566580,"88.09,80.05"
2024-05-28_13-20-40.595381,"83.73,72.35"
2024-05-28_13-20-40.628123,"79.18,73.89"
2024-05-28_13-20-40.660908,"90.91,81.61"
2024-05-28_13-20-40.693669,"84.49,79.78"
2024-05-28_13-20-40.726435,"83.50,67.61"
2024-05-28_13-20-40.759151,"80.95,81.09"
2024-05-28_13-20-40.791948,"95.35,61.03"
2024-05-28_13-20-40.820652,"63.30,90.38"
2024-05-28_13-20-40.853406,"89.13,85.88"
2024-05-28_13-20-40.886181,"71.21,62.38"
2024-05-28_13-20-40.918948,"82.66,81.36"
2024-05-28_13-20-40.951772,"92.06,83.00"
2024-05-28_13-20-40.984443,"72.54,70.90"
2024-05-28_13-20-41.017126,"88.26,80.85"
2024-05-28_13-20-41.045957,"85.78,71.47"
2024-05-28_13-20-41.079050,"92.03,63.94"
2024-05-28_13-20-41.111677,"93.71,70.00"
2024-05-28_13-20-41.144362,"95.04,88.20"
2024-05-28_13-20-41.177053,"81.74,75.91"
2024-05-28_13-20-41.209745,"81.67,71.33"
2024-05-28_13-20-41.242448,"85.99,83.24"
2024-05-28_13-20-41.271224,"82.66,77.31"
2024-05-28_13-20-41.303989,"87.39,68.41"
2024-05-28_13-20-41.336830,"81.77,80.15"
2024-05-28_13-20-41.369593,"90.66,72.40"
2024-05-28_13-20-41.402331,"103.61,54.93"
2024-05-28_13-20-41.435596,"77.85,76.92"
2024-05-28_13-20-41.467775,"74.57,75.30"
2024-05-28_13-20-41.496545,"87.36,81.55"
2024-05-28_13-20-41.529268,"83.95,78.92"
2024-05-28_13-20-41.562021,"69.12,72.96"
2024-05-28_13-20-41.594803,"87.91,78.68"
2024-05-28_13-20-41.627599,"83.17,71.59"
2024-05-28_13-20-41.660326,"80.89,77.57"
2024-05-28_13-20-41.693052,"92.55,72.02"
2024-05-28_13-20-41.721826,"84.99,55.74"
2024-05-28_13-20-41.754574,"66.62,93.63"
2024-05-28_13-20-41.787336,"100.15,84.35"
2024-05-28_13-20-41.820137,"99.11,94.33"
2024-05-28_13-20-41.852898,"94.63,80.83"
2024-05-28_13-20-41.885627,"79.14,69.73"
2024-05-28_13-20-41.918340,"75.52,79.53"
2024-05-28_13-20-41.947086,"83.18,71.48"
2024-05-28_13-20-41.979855,"88.15,81.84"
2024-05-28_13-20-42.012612,"97.89,51.90"
2024-05-28_13-20-42.045389,"72.68,55.72"
2024-05-28_13-20-42.078161,"78.03,87.42"
2024-05-28_13-20-42.110952,"109.88,93.86"
2024-05-28_13-20-42.143664,"85.23,69.36"
2024-05-28_13-20-42.172363,"77.07,78.42"
2024-05-28_13-20-42.205136,"85.81,71.50"
2024-05-28_13-20-42.237925,"81.14,76.32"
2024-05-28_13-20-42.270684,"93.45,83.82"
2024-05-28_13-20-42.303436,"76.40,54.19"
2024-05-28_13-20-42.394640,"103.37,52.26"
2024-05-28_13-20-42.408234,"62.00,64.85"
2024-05-28_13-20-42.408965,"75.60,84.56"
2024-05-28_13-20-42.430425,"92.88,83.04"
2024-05-28_13-20-42.463198,"85.50,76.57"
2024-05-28_13-20-42.495993,"77.73,78.54"
2024-05-28_13-20-42.528882,"81.16,71.35"
2024-05-28_13-20-42.561563,"87.03,82.07"
2024-05-28_13-20-42.594207,"93.82,71.61"
2024-05-28_13-20-42.622900,"90.66,53.07"
2024-05-28_13-20-42.655691,"89.21,50.63"
2024-05-28_13-20-42.688521,"70.81,88.56"
2024-05-28_13-20-42.721268,"94.25,88.12"
2024-05-28_13-20-42.754120,"80.34,86.42"
2024-05-28_13-20-42.786853,"77.98,74.98"
2024-05-28_13-20-42.819479,"80.15,77.57"
2024-05-28_13-20-42.852187,"87.21,83.55"
2024-05-28_13-20-42.880979,"77.56,69.00"
2024-05-28_13-20-42.913780,"88.43,81.79"
2024-05-28_13-20-42.946534,"101.94,56.59"
2024-05-28_13-20-42.979289,"73.38,48.80"
2024-05-28_13-20-43.012097,"85.83,92.47"
2024-05-28_13-20-43.044760,"96.90,77.44"
2024-05-28_13-20-43.077524,"76.64,80.71"
2024-05-28_13-20-43.106293,"82.50,73.82"
2024-05-28_13-20-43.139051,"84.61,81.75"
2024-05-28_13-20-43.171798,"86.16,79.46"
2024-05-28_13-20-43.204581,"84.41,68.17"
2024-05-28_13-20-43.237344,"82.91,68.42"
2024-05-28_13-20-43.270056,"101.25,55.88"
2024-05-28_13-20-43.302743,"62.88,57.76"
2024-05-28_13-20-43.331539,"92.08,84.38"
2024-05-28_13-20-43.364348,"71.15,60.99"
2024-05-28_13-20-43.397078,"93.87,79.92"
2024-05-28_13-20-43.429923,"82.68,84.63"
2024-05-28_13-20-43.462690,"76.82,70.49"
2024-05-28_13-20-43.495328,"85.57,81.00"
2024-05-28_13-20-43.528032,"85.76,71.67"
2024-05-28_13-20-43.556812,"95.03,63.52"
2024-05-28_13-20-43.589584,"80.27,78.59"
2024-05-28_13-20-43.622387,"74.86,77.60"
2024-05-28_13-20-43.655161,"96.35,80.18"
2024-05-28_13-20-43.687965,"83.01,79.76"
2024-05-28_13-20-43.720636,"90.94,82.44"
2024-05-28_13-20-43.753341,"73.20,77.24"
2024-05-28_13-20-43.782142,"76.97,67.36"
2024-05-28_13-20-43.814872,"82.71,80.20"
2024-05-28_13-20-43.847662,"85.74,71.44"
2024-05-28_13-20-43.880413,"101.26,53.96"
2024-05-28_13-20-43.913209,"76.78,56.59"
2024-05-28_13-20-43.946047,"77.52,76.60"
2024-05-28_13-20-43.978622,"105.95,80.82"
2024-05-28_13-20-44.007384,"83.21,77.20"
2024-05-28_13-20-44.040210,"67.08,73.55"
2024-05-28_13-20-44.072959,"85.80,80.13"
2024-05-28_13-20-44.105851,"77.37,71.16"
2024-05-28_13-20-44.138469,"81.27,77.56"
2024-05-28_13-20-44.171183,"94.35,71.44"
2024-05-28_13-20-44.203948,"94.07,54.97"
2024-05-28_13-20-44.232680,"74.52,55.50"
2024-05-28_13-20-44.265461,"89.30,90.76"
2024-05-28_13-20-44.298225,"97.70,75.46"
2024-05-28_13-20-44.331014,"83.71,78.59"
2024-05-28_13-20-44.363767,"75.50,72.11"
2024-05-28_13-20-44.396473,"83.51,78.47"
2024-05-28_13-20-44.429190,"77.39,70.97"
2024-05-28_13-20-44.458001,"87.81,82.18"
2024-05-28_13-20-44.490851,"88.75,68.55"
2024-05-28_13-20-44.523566,"95.11,52.67"
2024-05-28_13-20-44.556317,"67.21,82.90"
2024-05-28_13-20-44.589162,"92.75,96.61"
2024-05-28_13-20-44.621794,"82.12,65.71"
2024-05-28_13-20-44.654492,"80.51,81.97"
2024-05-28_13-20-44.683258,"74.80,72.60"
2024-05-28_13-20-44.716031,"82.56,75.69"
2024-05-28_13-20-44.748806,"74.17,83.63"
2024-05-28_13-20-44.781560,"75.83,70.33"
2024-05-28_13-20-44.814331,"87.59,81.59"
2024-05-28_13-20-44.847064,"95.98,55.68"
2024-05-28_13-20-44.879770,"71.26,51.68"
2024-05-28_13-20-44.908538,"82.98,88.43"
2024-05-28_13-20-44.941299,"85.25,64.33"
2024-05-28_13-20-44.974075,"79.55,81.62"
2024-05-28_13-20-45.006822,"72.30,72.70"
2024-05-28_13-20-45.039628,"84.46,80.92"
2024-05-28_13-20-45.072353,"87.54,80.05"
2024-05-28_13-20-45.105110,"83.85,68.59"
2024-05-28_13-20-45.133830,"80.03,67.41"
2024-05-28_13-20-45.166609,"96.71,72.70"
2024-05-28_13-20-45.199353,"59.57,88.09"
2024-05-28_13-20-45.232140,"97.95,83.21"
2024-05-28_13-20-45.264895,"83.86,71.33"
2024-05-28_13-20-45.297673,"87.87,78.09"
2024-05-28_13-20-45.330348,"84.14,82.70"
2024-05-28_13-20-45.359101,"64.46,70.07"
2024-05-28_13-20-45.391854,"89.30,80.20"
2024-05-28_13-20-45.424669,"84.92,71.35"
2024-05-28_13-20-45.457440,"95.38,63.82"
2024-05-28_13-20-45.490189,"84.31,79.29"
2024-05-28_13-20-45.523053,"69.70,78.42"
2024-05-28_13-20-45.555651,"86.48,81.73"
2024-05-28_13-20-45.584444,"72.76,68.06"
2024-05-28_13-20-45.617156,"92.19,81.77"
2024-05-28_13-20-45.650047,"86.81,77.96"
2024-05-28_13-20-45.682738,"80.77,68.42"
2024-05-28_13-20-45.715458,"81.51,80.30"
2024-05-28_13-20-45.748261,"83.86,71.39"
2024-05-28_13-20-45.780971,"102.74,71.48"
2024-05-28_13-20-45.809676,"74.99,56.50"
2024-05-28_13-20-45.842468,"69.27,77.79"
2024-05-28_13-20-45.875232,"103.21,83.19"
2024-05-28_13-20-45.907996,"82.39,87.11"
2024-05-28_13-20-45.940755,"77.10,73.97"
2024-05-28_13-20-45.973571,"87.04,78.45"
2024-05-28_13-20-46.006226,"80.12,72.19"
2024-05-28_13-20-46.034969,"80.59,77.64"
2024-05-28_13-20-46.067780,"92.41,84.46"
2024-05-28_13-20-46.108900,"94.02,55.65"
2024-05-28_13-20-46.133901,"73.99,55.99"
2024-05-28_13-20-46.178129,"87.45,47.66"
2024-05-28_13-20-46.199059,"75.90,85.16"
2024-05-28_13-20-46.231537,"88.01,83.44"
2024-05-28_13-20-46.264198,"72.76,71.89"
2024-05-28_13-20-46.293037,"74.02,77.90"
2024-05-28_13-20-46.325779,"77.54,70.36"
2024-05-28_13-20-46.358585,"85.61,81.81"
2024-05-28_13-20-46.391388,"88.98,68.86"
2024-05-28_13-20-46.424209,"92.94,53.35"
2024-05-28_13-20-46.456815,"68.77,87.59"
2024-05-28_13-20-46.489571,"94.59,94.47"
2024-05-28_13-20-46.518394,"71.68,66.00"
2024-05-28_13-20-46.551132,"90.74,81.48"
2024-05-28_13-20-46.583883,"72.40,74.96"
2024-05-28_13-20-46.616689,"82.54,75.64"
2024-05-28_13-20-46.649473,"88.26,83.07"
2024-05-28_13-20-46.682151,"77.02,70.55"
2024-05-28_13-20-46.714812,"87.14,67.85"
2024-05-28_13-20-46.743601,"89.61,55.05"
2024-05-28_13-20-46.776368,"69.92,65.17"
2024-05-28_13-20-46.809179,"96.35,88.77"
2024-05-28_13-20-46.841910,"84.80,84.17"
2024-05-28_13-20-46.874676,"81.78,77.76"
2024-05-28_13-20-46.907402,"77.27,71.96"
2024-05-28_13-20-46.940161,"79.34,80.44"
2024-05-28_13-20-46.968899,"87.53,80.32"
2024-05-28_13-20-47.001620,"83.37,67.87"
2024-05-28_13-20-47.034425,"91.31,68.00"
2024-05-28_13-20-47.067229,"87.70,73.57"
2024-05-28_13-20-47.100006,"74.11,88.87"
2024-05-28_13-20-47.132710,"96.87,84.74"
2024-05-28_13-20-47.165393,"83.88,83.94"
2024-05-28_13-20-47.194266,"85.78,78.60"
2024-05-28_13-20-47.226940,"82.56,85.37"
2024-05-28_13-20-47.259736,"78.97,70.26"
2024-05-28_13-20-47.292466,"87.77,79.62"
2024-05-28_13-20-47.325649,"86.34,71.83"
2024-05-28_13-20-47.358361,"75.20,60.62"
2024-05-28_13-20-47.390676,"79.55,82.56"
2024-05-28_13-20-47.419604,"95.63,81.08"
2024-05-28_13-20-47.452304,"74.66,80.97"
2024-05-28_13-20-47.484972,"84.41,69.05"
2024-05-28_13-20-47.517778,"88.45,84.56"
2024-05-28_13-20-47.550560,"86.50,77.96"
2024-05-28_13-20-47.583301,"76.56,68.07"
2024-05-28_13-20-47.615974,"82.13,80.18"
2024-05-28_13-20-47.644761,"84.31,71.42"
2024-05-28_13-20-47.677545,"104.85,70.31"
2024-05-28_13-20-47.710291,"75.42,55.05"
2024-05-28_13-20-47.743088,"82.49,76.40"
2024-05-28_13-20-47.775848,"104.30,79.67"
2024-05-28_13-20-47.808566,"82.61,91.20"
2024-05-28_13-20-47.841259,"82.15,73.19"
2024-05-28_13-20-47.870028,"86.14,77.83"
2024-05-28_13-20-47.902796,"73.93,71.15"
2024-05-28_13-20-47.935573,"82.49,77.33"
2024-05-28_13-20-47.968355,"93.68,85.13"
2024-05-28_13-20-48.001121,"88.39,54.13"
2024-05-28_13-20-48.033836,"85.07,80.79"
2024-05-28_13-20-48.066610,"81.91,87.19"
2024-05-28_13-20-48.095347,"93.11,82.66"
2024-05-28_13-20-48.128099,"69.35,73.42"
2024-05-28_13-20-48.160885,"80.73,73.48"
2024-05-28_13-20-48.193605,"80.41,77.28"
2024-05-28_13-20-48.226387,"79.65,71.56"
2024-05-28_13-20-48.259172,"86.68,81.97"
2024-05-28_13-20-48.291840,"88.86,81.35"
2024-05-28_13-20-48.320601,"88.59,51.66"
2024-05-28_13-20-48.353388,"88.56,52.22"
2024-05-28_13-20-48.386163,"62.25,80.23"
2024-05-28_13-20-48.418915,"94.25,75.90"
2024-05-28_13-20-48.451691,"94.60,70.81"
2024-05-28_13-20-48.484444,"85.23,75.99"
2024-05-28_13-20-48.517164,"87.07,76.33"
2024-05-28_13-20-48.545906,"81.66,83.20"
2024-05-28_13-20-48.578648,"74.68,69.53"
2024-05-28_13-20-48.611432,"90.06,81.16"
2024-05-28_13-20-48.644211,"94.53,72.72"
2024-05-28_13-20-48.676986,"93.58,45.54"
2024-05-28_13-20-48.709745,"62.17,79.74"
2024-05-28_13-20-48.742438,"92.93,75.90"
2024-05-28_13-20-48.771172,"97.04,81.62"
2024-05-28_13-20-48.803974,"78.00,80.02"
2024-05-28_13-20-48.836722,"85.01,82.81"
2024-05-28_13-20-48.869496,"88.81,78.19"
2024-05-28_13-20-48.902252,"82.04,67.43"
2024-05-28_13-20-48.935012,"83.28,80.45"
2024-05-28_13-20-48.967737,"95.64,72.38"
2024-05-28_13-20-49.000439,"90.67,53.53"
2024-05-28_13-20-49.029213,"70.09,52.91"
2024-05-28_13-20-49.062019,"82.09,74.92"
2024-05-28_13-20-49.094776,"104.27,83.63"
2024-05-28_13-20-49.127540,"84.92,77.79"
2024-05-28_13-20-49.160355,"71.84,73.23"
2024-05-28_13-20-49.193008,"88.07,78.42"
2024-05-28_13-20-49.225717,"78.36,71.30"
2024-05-28_13-20-49.254524,"82.66,78.44"
2024-05-28_13-20-49.287266,"92.93,71.57"
2024-05-28_13-20-49.320065,"89.47,54.89"
2024-05-28_13-20-49.352832,"70.94,69.83"
2024-05-28_13-20-49.385690,"83.70,85.13"
2024-05-28_13-20-49.418936,"84.40,57.13"
2024-05-28_13-20-49.451043,"74.92,94.66"
2024-05-28_13-20-49.479871,"62.28,79.68"
2024-05-28_13-20-49.512709,"80.21,78.30"
2024-05-28_13-20-49.545412,"78.65,70.95"
2024-05-28_13-20-49.578110,"88.50,68.20"
2024-05-28_13-20-49.610863,"88.00,82.24"
2024-05-28_13-20-49.643597,"103.75,52.67"
2024-05-28_13-20-49.676338,"76.62,73.79"
2024-05-28_13-20-49.705091,"93.01,90.84"
2024-05-28_13-20-49.737880,"93.75,77.76"
2024-05-28_13-20-49.770613,"76.21,83.29"
2024-05-28_13-20-49.803382,"81.37,72.61"
2024-05-28_13-20-49.836160,"92.94,74.88"
2024-05-28_13-20-49.868889,"85.34,83.40"
2024-05-28_13-20-49.901605,"77.16,69.94"
2024-05-28_13-20-49.930419,"89.18,81.31"
2024-05-28_13-20-49.963171,"93.54,55.87"
2024-05-28_13-20-49.995890,"77.34,73.22"
2024-05-28_13-20-50.028665,"77.83,92.37"
2024-05-28_13-20-50.061485,"98.67,81.22"
2024-05-28_13-20-50.094165,"82.67,75.43"
2024-05-28_13-20-50.126891,"74.19,74.54"
2024-05-28_13-20-50.157231,"90.85,80.70"
2024-05-28_13-20-50.188568,"83.05,78.82"
2024-05-28_13-20-50.221271,"86.75,68.78"
2024-05-28_13-20-50.254012,"84.87,67.11"
2024-05-28_13-20-50.286900,"104.10,60.33"
2024-05-28_13-20-50.319485,"74.88,83.08"
2024-05-28_13-20-50.352194,"65.96,72.74"
2024-05-28_13-20-50.380931,"79.29,83.34"
2024-05-28_13-20-50.413709,"95.26,71.41"
2024-05-28_13-20-50.446500,"94.58,86.18"
2024-05-28_13-20-50.479272,"74.73,73.11"
2024-05-28_13-20-50.512035,"79.41,79.48"
2024-05-28_13-20-50.544765,"81.52,70.80"
2024-05-28_13-20-50.577477,"81.36,77.66"
2024-05-28_13-20-50.606227,"101.33,71.35"
2024-05-28_13-20-50.639001,"80.49,54.84"
2024-05-28_13-20-50.671803,"68.61,93.33"
2024-05-28_13-20-50.704560,"102.30,80.69"
2024-05-28_13-20-50.737323,"87.17,91.52"
2024-05-28_13-20-50.770097,"83.20,79.84"
2024-05-28_13-20-50.802756,"77.74,71.35"
2024-05-28_13-20-50.831513,"83.38,78.21"
2024-05-28_13-20-50.864292,"78.72,70.90"
2024-05-28_13-20-50.900537,"88.40,82.62"
2024-05-28_13-20-50.931196,"94.98,93.79"
2024-05-28_13-20-50.962642,"90.16,65.43"
2024-05-28_13-20-50.995377,"92.33,76.02"
2024-05-28_13-20-51.028050,"92.78,77.67"
2024-05-28_13-20-51.056794,"86.25,77.75"
2024-05-28_13-20-51.089586,"89.24,83.07"
2024-05-28_13-20-51.122336,"81.30,75.34"
2024-05-28_13-20-51.155144,"88.91,76.57"
2024-05-28_13-20-51.187872,"85.57,83.02"
2024-05-28_13-20-51.220634,"78.32,70.46"
2024-05-28_13-20-51.253334,"89.62,81.44"
2024-05-28_13-20-51.286053,"87.12,55.83"
2024-05-28_13-20-51.314845,"86.95,48.25"
2024-05-28_13-20-51.347716,"64.11,95.03"
2024-05-28_13-20-51.380471,"90.39,75.53"
2024-05-28_13-20-51.413205,"103.38,81.67"
2024-05-28_13-20-51.445987,"82.17,77.30"
2024-05-28_13-20-51.478625,"83.95,83.80"
2024-05-28_13-20-51.507361,"90.87,79.87"
2024-05-28_13-20-51.540218,"82.33,67.46"
2024-05-28_13-20-51.572896,"70.11,80.33"
2024-05-28_13-20-51.605681,"85.69,71.71"
2024-05-28_13-20-51.638437,"92.40,54.11"
2024-05-28_13-20-51.671271,"68.57,52.61"
2024-05-28_13-20-51.703932,"75.67,85.37"
2024-05-28_13-20-51.736629,"86.54,77.51"
2024-05-28_13-20-51.765430,"81.82,87.92"
2024-05-28_13-20-51.798222,"69.73,73.81"
2024-05-28_13-20-51.832639,"93.40,72.68"
2024-05-28_13-20-51.864829,"94.95,59.08"
2024-05-28_13-20-51.896720,"100.18,60.45"
2024-05-28_13-20-51.929258,"116.92,76.85"
2024-05-28_13-20-51.962001,"88.86,55.10"
2024-05-28_13-20-51.992313,"77.92,99.25"
2024-05-28_13-20-52.023575,"74.49,59.83"
2024-05-28_13-20-52.056401,"95.85,73.35"
2024-05-28_13-20-52.090376,"73.38,81.82"
2024-05-28_13-20-52.121844,"53.49,87.19"
2024-05-28_13-20-52.154606,"57.79,85.40"
2024-05-28_13-20-52.187236,"92.50,64.41"
2024-05-28_13-20-52.216144,"86.79,84.41"
2024-05-28_13-20-52.249245,"58.28,75.47"
2024-05-28_13-20-52.281632,"58.33,64.96"
2024-05-28_13-20-52.315298,"67.09,70.30"
2024-05-28_13-20-52.347324,"52.90,63.92"
2024-05-28_13-20-52.380315,"83.62,82.38"
2024-05-28_13-20-52.412527,"79.15,77.32"
2024-05-28_13-20-52.441387,"75.78,66.38"
2024-05-28_13-20-52.474051,"90.01,78.88"
2024-05-28_13-20-52.506954,"88.82,63.64"
2024-05-28_13-20-52.539642,"46.94,64.58"
2024-05-28_13-20-52.572522,"53.28,69.12"
2024-05-28_13-20-52.605099,"64.00,65.17"
2024-05-28_13-20-52.638236,"61.57,69.57"
2024-05-28_13-20-52.666704,"59.47,78.26"
2024-05-28_13-20-52.699426,"54.13,70.49"
2024-05-28_13-20-52.732288,"91.05,77.12"
2024-05-28_13-20-52.764927,"74.14,70.97"
2024-05-28_13-20-52.797812,"90.94,80.34"
2024-05-28_13-20-52.830420,"70.66,61.82"
2024-05-28_13-20-52.863130,"62.38,65.25"
2024-05-28_13-20-52.891832,"51.06,69.22"
2024-05-28_13-20-52.924667,"61.95,64.67"
2024-05-28_13-20-52.957417,"58.20,75.43"
2024-05-28_13-20-52.990157,"60.28,71.50"
2024-05-28_13-20-53.022925,"54.58,69.29"
2024-05-28_13-20-53.055666,"65.75,72.92"
2024-05-28_13-20-53.088504,"91.56,64.37"
2024-05-28_13-20-53.117187,"68.11,76.34"
2024-05-28_13-20-53.149952,"85.46,82.13"
2024-05-28_13-20-53.182717,"63.89,60.81"
2024-05-28_13-20-53.215475,"52.92,71.22"
2024-05-28_13-20-53.248230,"58.23,73.77"
2024-05-28_13-20-53.281057,"59.92,66.45"
2024-05-28_13-20-53.313693,"69.70,69.77"
2024-05-28_13-20-53.343033,"71.42,69.64"
2024-05-28_13-20-53.375355,"52.75,73.06"
2024-05-28_13-20-53.408000,"93.85,82.24"
2024-05-28_13-20-53.440876,"60.83,71.12"
2024-05-28_13-20-53.473593,"81.43,75.50"
2024-05-28_13-20-53.506294,"101.28,79.74"
2024-05-28_13-20-53.539064,"55.26,51.35"
2024-05-28_13-20-53.567767,"51.30,71.89"
2024-05-28_13-20-53.600509,"57.63,64.12"
2024-05-28_13-20-53.633374,"55.93,69.17"
2024-05-28_13-20-53.666035,"71.65,67.18"
2024-05-28_13-20-53.698917,"53.25,78.34"
2024-05-28_13-20-53.731615,"55.40,73.58"
2024-05-28_13-20-53.764289,"97.57,70.92"
2024-05-28_13-20-53.793024,"75.60,72.91"
2024-05-28_13-20-53.825789,"87.39,74.30"
2024-05-28_13-20-53.858593,"83.98,73.47"
2024-05-28_13-20-53.891295,"50.40,59.12"
2024-05-28_13-20-53.924042,"57.00,65.03"
2024-05-28_13-20-53.956806,"47.43,67.62"
2024-05-28_13-20-53.989546,"64.84,74.71"
2024-05-28_13-20-54.018293,"70.83,68.99"
2024-05-28_13-20-54.051171,"73.12,76.82"
2024-05-28_13-20-54.083918,"76.63,75.25"
2024-05-28_13-20-54.116624,"88.88,75.44"
2024-05-28_13-20-54.149769,"79.05,75.90"
2024-05-28_13-20-54.182202,"92.31,72.02"
2024-05-28_13-20-54.214816,"85.69,57.57"
2024-05-28_13-20-54.247529,"50.47,64.85"
2024-05-28_13-20-54.276310,"56.93,74.86"
2024-05-28_13-20-54.309089,"54.17,69.30"
2024-05-28_13-20-54.341893,"71.12,66.14"
2024-05-28_13-20-54.374654,"62.60,71.54"
2024-05-28_13-20-54.407439,"52.84,71.22"
2024-05-28_13-20-54.440129,"87.69,80.61"
2024-05-28_13-20-54.472819,"74.02,78.76"
2024-05-28_13-20-54.501600,"78.32,48.24"
2024-05-28_13-20-54.534406,"91.83,80.15"
2024-05-28_13-20-54.567147,"79.51,63.44"
2024-05-28_13-20-54.599947,"50.19,64.78"
2024-05-28_13-20-54.633062,"52.20,68.72"
2024-05-28_13-20-54.665403,"63.72,65.43"
2024-05-28_13-20-54.698108,"59.49,69.80"
2024-05-28_13-20-54.726978,"57.20,77.65"
2024-05-28_13-20-54.759716,"54.07,79.83"
2024-05-28_13-20-54.792496,"89.15,65.45"
2024-05-28_13-20-54.825246,"71.13,69.48"
2024-05-28_13-20-54.858046,"87.60,75.88"
2024-05-28_13-20-54.890772,"95.53,57.69"
2024-05-28_13-20-54.923465,"49.48,65.32"
2024-05-28_13-20-54.952474,"50.96,69.69"
2024-05-28_13-20-54.984958,"62.57,64.40"
2024-05-28_13-20-55.017816,"59.21,75.28"
2024-05-28_13-20-55.050501,"84.94,74.53"
2024-05-28_13-20-55.083309,"51.63,68.56"
2024-05-28_13-20-55.116029,"62.33,82.32"
2024-05-28_13-20-55.148789,"101.72,66.49"
2024-05-28_13-20-55.177520,"65.22,76.08"
2024-05-28_13-20-55.210244,"83.09,81.91"
2024-05-28_13-20-55.243048,"99.81,64.34"
2024-05-28_13-20-55.289787,"60.06,56.35"
2024-05-28_13-20-55.308890,"54.98,74.30"
2024-05-28_13-20-55.341251,"58.97,66.18"
2024-05-28_13-20-55.373970,"54.65,68.53"
2024-05-28_13-20-55.402855,"80.14,68.36"
2024-05-28_13-20-55.435510,"54.12,71.23"
2024-05-28_13-20-55.468298,"54.89,87.78"
2024-05-28_13-20-55.501081,"82.54,64.77"
2024-05-28_13-20-55.533838,"78.34,75.41"
2024-05-28_13-20-55.566605,"93.37,82.27"
2024-05-28_13-20-55.599270,"86.32,49.98"
2024-05-28_13-20-55.628056,"63.00,72.75"
2024-05-28_13-20-55.660844,"55.08,64.34"
2024-05-28_13-20-55.693575,"54.96,68.97"
2024-05-28_13-20-55.726336,"62.52,65.84"
2024-05-28_13-20-55.759111,"64.77,76.95"
2024-05-28_13-20-55.791934,"52.24,73.15"
2024-05-28_13-20-55.824718,"83.90,73.79"
2024-05-28_13-20-55.853441,"77.78,75.44"
2024-05-28_13-20-55.886154,"81.78,66.73"
2024-05-28_13-20-55.918978,"90.23,76.83"
2024-05-28_13-20-55.951642,"71.43,66.05"
2024-05-28_13-20-55.984434,"49.11,65.13"
2024-05-28_13-20-56.017214,"45.00,68.34"
2024-05-28_13-20-56.049902,"62.13,74.12"
2024-05-28_13-20-56.078609,"67.62,67.23"
2024-05-28_13-20-56.111358,"54.77,74.65"
2024-05-28_13-20-56.144184,"59.39,70.73"
2024-05-28_13-20-56.176916,"66.96,79.00"
2024-05-28_13-20-56.209672,"82.95,76.21"
2024-05-28_13-20-56.242469,"71.43,66.13"
2024-05-28_13-20-56.275183,"83.82,71.96"
2024-05-28_13-20-56.303965,"87.51,62.64"
2024-05-28_13-20-56.336803,"60.22,77.03"
2024-05-28_13-20-56.369460,"51.50,69.58"
2024-05-28_13-20-56.402255,"58.51,65.01"
2024-05-28_13-20-56.435075,"58.51,70.21"
2024-05-28_13-20-56.467766,"72.97,66.99"
2024-05-28_13-20-56.500514,"50.95,79.19"
2024-05-28_13-20-56.529224,"55.97,77.54"
2024-05-28_13-20-56.562039,"81.28,70.14"
2024-05-28_13-20-56.594756,"80.04,72.93"
2024-05-28_13-20-56.627669,"94.10,81.76"
2024-05-28_13-20-56.660297,"83.31,50.12"
2024-05-28_13-20-56.693072,"61.29,71.61"
2024-05-28_13-20-56.725810,"60.26,65.70"
2024-05-28_13-20-56.758593,"47.85,67.94"
2024-05-28_13-20-56.787366,"62.41,74.33"
2024-05-28_13-20-56.820079,"65.60,69.45"
2024-05-28_13-20-56.852874,"52.52,73.67"
2024-05-28_13-20-56.885952,"84.05,84.52"
2024-05-28_13-20-56.927894,"78.13,81.84"
2024-05-28_13-20-56.965747,"78.96,60.45"
2024-05-28_13-20-56.985380,"89.53,61.86"
2024-05-28_13-20-57.013163,"72.37,69.58"
2024-05-28_13-20-57.046027,"51.30,64.46"
2024-05-28_13-20-57.078134,"53.48,73.87"
2024-05-28_13-20-57.110908,"50.92,72.56"
2024-05-28_13-20-57.143660,"66.32,65.83"
2024-05-28_13-20-57.176339,"60.31,73.10"
2024-05-28_13-20-57.209639,"53.85,70.69"
2024-05-28_13-20-57.238020,"95.18,81.04"
2024-05-28_13-20-57.270775,"75.46,75.94"
2024-05-28_13-20-57.303409,"78.44,65.74"
2024-05-28_13-20-57.336145,"100.51,76.17"
2024-05-28_13-20-57.369022,"64.87,63.17"
2024-05-28_13-20-57.401633,"50.48,65.40"
2024-05-28_13-20-57.434334,"52.52,68.79"
2024-05-28_13-20-57.463216,"63.44,65.66"
2024-05-28_13-20-57.495960,"61.17,69.57"
2024-05-28_13-20-57.528722,"58.62,77.36"
2024-05-28_13-20-57.561492,"53.32,70.76"
2024-05-28_13-20-57.594237,"92.46,77.76"
2024-05-28_13-20-57.626992,"71.84,72.02"
2024-05-28_13-20-57.659607,"82.32,76.04"
2024-05-28_13-20-57.688396,"96.15,79.03"
2024-05-28_13-20-57.721137,"41.10,47.51"
2024-05-28_13-20-57.753942,"64.94,71.04"
2024-05-28_13-20-57.786675,"59.14,64.73"
2024-05-28_13-20-57.819483,"57.63,73.94"
2024-05-28_13-20-57.852239,"54.41,70.49"
2024-05-28_13-20-57.884988,"71.92,68.44"
2024-05-28_13-20-57.913645,"56.63,71.93"
2024-05-28_13-20-57.946470,"55.51,74.67"
2024-05-28_13-20-57.979360,"81.04,75.52"
2024-05-28_13-20-58.012045,"77.04,75.32"
2024-05-28_13-20-58.044898,"85.43,65.45"
2024-05-28_13-20-58.077957,"91.06,53.58"
2024-05-28_13-20-58.110173,"55.80,77.19"
2024-05-28_13-20-58.139199,"53.22,64.74"
2024-05-28_13-20-58.171742,"49.42,71.91"
2024-05-28_13-20-58.204460,"63.37,65.83"
2024-05-28_13-20-58.237262,"70.92,69.40"
2024-05-28_13-20-58.270017,"53.83,79.12"
2024-05-28_13-20-58.302759,"53.98,81.68"
2024-05-28_13-20-58.335524,"88.50,65.61"
2024-05-28_13-20-58.364235,"72.35,69.12"
2024-05-28_13-20-58.397017,"87.37,77.22"
2024-05-28_13-20-58.429755,"94.55,68.27"
2024-05-28_13-20-58.462522,"46.50,66.39"
2024-05-28_13-20-58.495298,"68.79,71.11"
2024-05-28_13-20-58.528287,"59.08,64.05"
2024-05-28_13-20-58.560859,"59.16,74.06"
2024-05-28_13-20-58.589597,"55.45,71.25"
2024-05-28_13-20-58.622359,"63.65,67.97"
2024-05-28_13-20-58.655090,"58.61,73.26"
2024-05-28_13-20-58.687828,"93.76,71.50"
2024-05-28_13-20-58.720613,"61.33,80.69"
2024-05-28_13-20-58.753362,"78.39,76.07"
2024-05-28_13-20-58.786076,"94.14,66.41"
2024-05-28_13-20-58.814821,"63.37,63.50"
2024-05-28_13-20-58.847588,"64.42,75.42"
2024-05-28_13-20-58.880366,"56.76,65.86"
2024-05-28_13-20-58.913151,"54.08,68.37"
2024-05-28_13-20-58.945876,"62.50,65.76"
2024-05-28_13-20-58.978684,"67.68,69.36"
2024-05-28_13-20-59.011393,"52.98,79.26"
2024-05-28_13-20-59.040114,"54.45,75.42"
2024-05-28_13-20-59.072903,"85.06,67.53"
2024-05-28_13-20-59.105656,"70.31,70.95"
2024-05-28_13-20-59.138418,"85.54,75.70"
2024-05-28_13-20-59.171345,"86.35,72.89"
2024-05-28_13-20-59.203978,"37.00,66.29"
2024-05-28_13-20-59.236616,"50.50,70.59"
2024-05-28_13-20-59.265380,"60.14,64.05"
2024-05-28_13-20-59.298165,"58.72,74.06"
2024-05-28_13-20-59.330903,"67.55,71.67"
2024-05-28_13-20-59.363812,"63.36,68.93"
2024-05-28_13-20-59.396483,"58.66,73.80"
2024-05-28_13-20-59.429198,"90.68,85.02"
2024-05-28_13-20-59.461951,"61.25,79.82"
2024-05-28_13-20-59.490647,"79.46,75.60"
2024-05-28_13-20-59.523434,"89.73,69.37"
2024-05-28_13-20-59.556194,"78.59,57.35"
2024-05-28_13-20-59.589017,"62.23,75.84"
2024-05-28_13-20-59.621742,"54.11,64.90"
2024-05-28_13-20-59.654560,"54.76,69.03"
2024-05-28_13-20-59.687241,"62.68,66.02"
2024-05-28_13-20-59.719928,"67.69,70.63"
2024-05-28_13-20-59.748737,"53.39,78.78"
2024-05-28_13-20-59.781490,"54.13,75.61"
2024-05-28_13-20-59.814253,"86.26,67.22"
2024-05-28_13-20-59.847071,"71.85,71.60"
2024-05-28_13-20-59.879823,"83.06,76.45"
2024-05-28_13-20-59.912542,"93.54,67.00"
2024-05-28_13-20-59.945233,"43.80,48.97"
2024-05-28_13-20-59.973996,"49.93,70.22"
2024-05-28_13-21-00.006842,"59.90,64.07"
2024-05-28_13-21-00.039704,"59.25,74.58"
2024-05-28_13-21-00.072343,"53.67,70.45"
2024-05-28_13-21-00.105170,"67.35,67.83"
2024-05-28_13-21-00.137912,"57.44,73.34"
2024-05-28_13-21-00.170531,"65.75,84.18"
2024-05-28_13-21-00.199330,"83.31,72.27"
2024-05-28_13-21-00.232100,"73.84,61.94"
2024-05-28_13-21-00.264827,"87.05,48.65"
2024-05-28_13-21-00.297568,"89.67,63.55"
2024-05-28_13-21-00.330359,"53.05,77.62"
2024-05-28_13-21-00.363118,"54.60,65.50"
2024-05-28_13-21-00.395805,"53.29,68.42"
2024-05-28_13-21-00.424635,"63.73,65.65"
2024-05-28_13-21-00.457375,"62.56,69.65"
2024-05-28_13-21-00.490133,"59.46,77.16"
2024-05-28_13-21-00.523012,"52.29,71.11"
2024-05-28_13-21-00.555655,"55.82,77.98"
2024-05-28_13-21-00.588424,"87.98,63.39"
2024-05-28_13-21-00.621105,"78.79,76.45"
2024-05-28_13-21-00.649827,"85.81,74.47"
2024-05-28_13-21-00.682634,"82.10,59.88"
2024-05-28_13-21-00.715398,"55.68,72.75"
2024-05-28_13-21-00.748254,"59.98,65.11"
2024-05-28_13-21-00.780961,"57.52,73.49"
2024-05-28_13-21-00.813766,"53.75,69.55"
2024-05-28_13-21-00.846345,"75.38,68.21"
2024-05-28_13-21-00.875198,"56.17,71.93"
2024-05-28_13-21-00.907973,"55.31,79.14"
2024-05-28_13-21-00.940747,"88.11,86.74"
2024-05-28_13-21-00.973503,"77.53,74.96"
2024-05-28_13-21-01.006254,"81.64,65.96"
2024-05-28_13-21-01.038972,"89.65,74.11"
2024-05-28_13-21-01.071659,"65.77,63.78"
2024-05-28_13-21-01.100442,"49.76,64.05"
2024-05-28_13-21-01.133343,"53.02,69.12"
2024-05-28_13-21-01.165984,"63.25,65.11"
2024-05-28_13-21-01.198805,"56.87,71.88"
