timestamp,EMG
2024-05-28_13-17-37.955594,"75.03,89.37"
2024-05-28_13-17-37.984623,"72.12,71.35"
2024-05-28_13-17-38.017219,"96.32,75.12"
2024-05-28_13-17-38.050241,"104.43,63.89"
2024-05-28_13-17-38.082753,"98.34,53.53"
2024-05-28_13-17-38.115485,"91.37,85.33"
2024-05-28_13-17-38.148144,"74.20,80.13"
2024-05-28_13-17-38.180832,"95.59,89.61"
2024-05-28_13-17-38.209652,"93.02,84.46"
2024-05-28_13-17-38.242509,"86.64,84.27"
2024-05-28_13-17-38.275216,"91.38,81.64"
2024-05-28_13-17-38.307998,"84.32,68.71"
2024-05-28_13-17-38.340729,"85.84,85.83"
2024-05-28_13-17-38.373450,"85.92,56.14"
2024-05-28_13-17-38.406161,"104.39,53.71"
2024-05-28_13-17-38.434926,"76.55,56.54"
2024-05-28_13-17-38.467805,"81.01,75.67"
2024-05-28_13-17-38.500482,"80.75,77.76"
2024-05-28_13-17-38.533280,"90.34,82.30"
2024-05-28_13-17-38.567038,"68.52,73.32"
2024-05-28_13-17-38.598819,"94.28,82.85"
2024-05-28_13-17-38.631444,"85.41,58.17"
2024-05-28_13-17-38.660271,"79.96,77.96"
2024-05-28_13-17-38.692966,"91.57,70.94"
2024-05-28_13-17-38.725742,"86.57,55.66"
2024-05-28_13-17-38.758569,"69.82,77.60"
2024-05-28_13-17-38.791283,"98.52,86.33"
2024-05-28_13-17-38.824045,"96.74,95.03"
2024-05-28_13-17-38.856712,"84.88,78.21"
2024-05-28_13-17-38.885534,"78.76,71.82"
2024-05-28_13-17-38.918309,"84.38,79.77"
2024-05-28_13-17-38.951079,"82.70,71.42"
2024-05-28_13-17-38.983861,"89.39,68.62"
2024-05-28_13-17-39.016601,"111.36,54.65"
2024-05-28_13-17-39.049381,"80.87,53.55"
2024-05-28_13-17-39.082044,"70.33,59.93"
2024-05-28_13-17-39.114725,"100.51,86.02"
2024-05-28_13-17-39.143541,"86.72,67.91"
2024-05-28_13-17-39.176296,"78.02,78.40"
2024-05-28_13-17-39.209168,"83.47,72.39"
2024-05-28_13-17-39.241886,"75.27,77.31"
2024-05-28_13-17-39.274626,"91.71,83.96"
2024-05-28_13-17-39.307312,"78.32,70.82"
2024-05-28_13-17-39.336169,"97.62,52.17"
2024-05-28_13-17-39.368933,"74.55,53.41"
2024-05-28_13-17-39.401807,"96.01,82.97"
2024-05-28_13-17-39.434338,"86.00,87.14"
2024-05-28_13-17-39.467132,"82.20,77.54"
2024-05-28_13-17-39.499859,"76.58,79.41"
2024-05-28_13-17-39.532592,"87.58,72.06"
2024-05-28_13-17-39.565499,"85.29,81.55"
2024-05-28_13-17-39.594163,"92.23,52.13"
2024-05-28_13-17-39.626962,"84.37,69.61"
2024-05-28_13-17-39.659679,"86.42,70.17"
2024-05-28_13-17-39.692464,"103.62,89.26"
2024-05-28_13-17-39.725202,"80.47,84.51"
2024-05-28_13-17-39.757878,"89.03,75.37"
2024-05-28_13-17-39.790594,"87.12,79.14"
2024-05-28_13-17-39.819412,"98.28,77.96"
2024-05-28_13-17-39.852192,"83.78,83.90"
2024-05-28_13-17-39.884949,"76.69,70.66"
2024-05-28_13-17-39.917781,"96.01,70.05"
2024-05-28_13-17-39.950585,"103.43,62.32"
2024-05-28_13-17-39.983264,"70.27,78.02"
2024-05-28_13-17-40.015890,"93.86,92.38"
2024-05-28_13-17-40.044705,"96.25,63.69"
2024-05-28_13-17-40.077471,"77.24,83.43"
2024-05-28_13-17-40.110260,"83.42,73.84"
2024-05-28_13-17-40.143016,"81.78,82.01"
2024-05-28_13-17-40.175782,"87.00,81.07"
2024-05-28_13-17-40.208470,"85.13,68.88"
2024-05-28_13-17-40.241156,"81.10,68.64"
2024-05-28_13-17-40.269973,"94.58,74.00"
2024-05-28_13-17-40.302826,"82.19,88.44"
2024-05-28_13-17-40.335604,"92.87,89.32"
2024-05-28_13-17-40.368311,"92.32,84.96"
2024-05-28_13-17-40.401063,"101.31,84.57"
2024-05-28_13-17-40.433900,"80.25,85.56"
2024-05-28_13-17-40.466470,"78.28,70.40"
2024-05-28_13-17-40.495275,"89.82,80.39"
2024-05-28_13-17-40.528166,"86.50,73.08"
2024-05-28_13-17-40.560811,"102.87,45.77"
2024-05-28_13-17-40.593541,"80.54,78.47"
2024-05-28_13-17-40.626300,"71.69,79.84"
2024-05-28_13-17-40.659043,"97.80,79.78"
2024-05-28_13-17-40.691709,"85.53,69.06"
2024-05-28_13-17-40.720577,"80.47,82.90"
2024-05-28_13-17-40.753304,"86.88,77.71"
2024-05-28_13-17-40.786017,"77.97,68.43"
2024-05-28_13-17-40.819099,"84.07,81.19"
2024-05-28_13-17-40.851632,"80.36,76.49"
2024-05-28_13-17-40.884377,"92.37,55.35"
2024-05-28_13-17-40.917175,"71.25,66.81"
2024-05-28_13-17-40.945821,"90.96,77.42"
2024-05-28_13-17-40.978615,"104.08,85.65"
2024-05-28_13-17-41.011448,"87.99,79.40"
2024-05-28_13-17-41.044176,"70.97,72.97"
2024-05-28_13-17-41.076876,"89.09,79.00"
2024-05-28_13-17-41.109624,"84.49,71.61"
2024-05-28_13-17-41.142328,"82.77,77.01"
2024-05-28_13-17-41.171051,"107.92,71.93"
2024-05-28_13-17-41.203840,"75.16,55.82"
2024-05-28_13-17-41.236654,"70.57,71.15"
2024-05-28_13-17-41.269413,"98.17,80.03"
2024-05-28_13-17-41.302170,"93.48,76.63"
2024-05-28_13-17-41.334946,"94.91,80.95"
2024-05-28_13-17-41.367675,"79.88,71.21"
2024-05-28_13-17-41.396513,"74.47,80.13"
2024-05-28_13-17-41.429220,"85.53,70.71"
2024-05-28_13-17-41.462076,"81.10,70.02"
2024-05-28_13-17-41.494714,"97.42,53.95"
2024-05-28_13-17-41.527537,"67.02,56.91"
2024-05-28_13-17-41.560328,"91.53,90.52"
2024-05-28_13-17-41.592894,"103.10,95.96"
2024-05-28_13-17-41.621627,"75.89,67.83"
2024-05-28_13-17-41.654439,"80.19,78.20"
2024-05-28_13-17-41.687295,"85.61,72.07"
2024-05-28_13-17-41.720016,"79.16,77.17"
2024-05-28_13-17-41.752767,"96.73,84.02"
2024-05-28_13-17-41.785493,"78.36,54.78"
2024-05-28_13-17-41.818214,"103.82,51.78"
2024-05-28_13-17-41.846955,"71.15,82.55"
2024-05-28_13-17-41.879699,"83.49,80.96"
2024-05-28_13-17-41.912444,"90.79,88.51"
2024-05-28_13-17-41.945201,"84.09,79.63"
2024-05-28_13-17-41.977984,"77.48,77.03"
2024-05-28_13-17-42.010769,"79.65,71.14"
2024-05-28_13-17-42.043473,"85.59,81.41"
2024-05-28_13-17-42.072214,"90.48,81.75"
2024-05-28_13-17-42.104940,"92.08,52.06"
2024-05-28_13-17-42.137739,"91.11,52.74"
2024-05-28_13-17-42.170497,"73.13,75.53"
2024-05-28_13-17-42.203289,"91.64,74.78"
2024-05-28_13-17-42.236077,"83.37,73.24"
2024-05-28_13-17-42.268750,"76.96,75.67"
2024-05-28_13-17-42.301460,"88.82,75.05"
2024-05-28_13-17-42.330233,"81.23,83.13"
2024-05-28_13-17-42.363036,"76.36,69.99"
2024-05-28_13-17-42.395818,"91.40,82.26"
2024-05-28_13-17-42.428528,"98.42,55.52"
2024-05-28_13-17-42.461363,"82.30,80.18"
2024-05-28_13-17-42.494025,"73.68,86.11"
2024-05-28_13-17-42.526718,"97.83,85.51"
2024-05-28_13-17-42.555531,"73.44,85.51"
2024-05-28_13-17-42.588296,"81.30,74.42"
2024-05-28_13-17-42.621069,"90.35,81.55"
2024-05-28_13-17-42.653869,"84.21,80.07"
2024-05-28_13-17-42.686585,"84.27,68.53"
2024-05-28_13-17-42.719319,"81.14,81.25"
2024-05-28_13-17-42.752024,"103.69,56.55"
2024-05-28_13-17-42.780852,"66.58,60.14"
2024-05-28_13-17-42.813613,"92.11,91.84"
2024-05-28_13-17-42.846344,"71.28,65.78"
2024-05-28_13-17-42.879114,"85.22,79.45"
2024-05-28_13-17-42.911957,"83.11,83.06"
2024-05-28_13-17-42.944615,"79.30,70.83"
2024-05-28_13-17-42.977295,"88.65,80.59"
2024-05-28_13-17-43.006150,"86.61,71.41"
2024-05-28_13-17-43.038917,"96.80,45.53"
2024-05-28_13-17-43.071616,"88.65,84.34"
2024-05-28_13-17-43.104478,"69.87,80.52"
2024-05-28_13-17-43.137165,"97.59,84.53"
2024-05-28_13-17-43.169902,"81.46,85.92"
2024-05-28_13-17-43.202590,"87.91,82.04"
2024-05-28_13-17-43.231400,"71.12,77.26"
2024-05-28_13-17-43.264167,"76.98,68.71"
2024-05-28_13-17-43.296932,"82.69,80.34"
2024-05-28_13-17-43.329666,"85.50,71.34"
2024-05-28_13-17-43.362523,"97.64,55.18"
2024-05-28_13-17-43.395184,"77.50,77.65"
2024-05-28_13-17-43.428018,"82.80,77.80"
2024-05-28_13-17-43.456745,"98.70,85.40"
2024-05-28_13-17-43.489478,"79.53,90.07"
2024-05-28_13-17-43.522180,"80.33,73.05"
2024-05-28_13-17-43.554952,"87.79,78.50"
2024-05-28_13-17-43.587734,"78.99,71.59"
2024-05-28_13-17-43.620448,"82.47,77.06"
2024-05-28_13-17-43.653134,"92.71,84.88"
2024-05-28_13-17-43.681945,"90.63,55.57"
2024-05-28_13-17-43.714691,"71.59,59.39"
2024-05-28_13-17-43.747480,"90.12,87.81"
2024-05-28_13-17-43.780207,"98.45,91.23"
2024-05-28_13-17-43.813006,"84.21,78.73"
2024-05-28_13-17-43.845737,"79.88,71.57"
2024-05-28_13-17-43.878433,"76.44,79.25"
2024-05-28_13-17-43.907243,"82.62,70.97"
2024-05-28_13-17-43.939974,"86.67,82.95"
2024-05-28_13-17-43.972878,"102.84,53.37"
2024-05-28_13-17-44.015764,"65.00,71.31"
2024-05-28_13-17-44.057105,"76.34,73.39"
2024-05-28_13-17-44.071245,"92.76,89.23"
2024-05-28_13-17-44.104121,"77.41,86.85"
2024-05-28_13-17-44.132560,"66.60,86.36"
2024-05-28_13-17-44.165283,"80.72,74.08"
2024-05-28_13-17-44.198176,"76.89,76.99"
2024-05-28_13-17-44.230838,"94.61,84.60"
2024-05-28_13-17-44.263590,"76.81,71.12"
2024-05-28_13-17-44.296380,"105.31,53.18"
2024-05-28_13-17-44.329056,"71.44,89.46"
2024-05-28_13-17-44.357788,"94.42,82.30"
2024-05-28_13-17-44.390572,"89.81,94.28"
2024-05-28_13-17-44.423379,"89.94,79.89"
2024-05-28_13-17-44.456169,"72.82,80.37"
2024-05-28_13-17-44.488881,"86.73,72.51"
2024-05-28_13-17-44.521633,"85.35,81.06"
2024-05-28_13-17-44.554295,"88.87,81.39"
2024-05-28_13-17-44.583095,"92.70,51.78"
2024-05-28_13-17-44.615822,"90.48,81.81"
2024-05-28_13-17-44.648560,"69.39,74.72"
2024-05-28_13-17-44.681411,"91.70,75.36"
2024-05-28_13-17-44.714105,"93.50,72.05"
2024-05-28_13-17-44.746910,"73.95,75.90"
2024-05-28_13-17-44.779597,"88.36,75.82"
2024-05-28_13-17-44.808306,"82.94,83.08"
2024-05-28_13-17-44.841123,"75.68,69.34"
2024-05-28_13-17-44.873872,"90.48,81.88"
2024-05-28_13-17-44.906739,"85.57,55.94"
2024-05-28_13-17-44.939404,"79.51,72.06"
2024-05-28_13-17-44.972168,"85.01,92.00"
2024-05-28_13-17-45.004894,"87.52,85.90"
2024-05-28_13-17-45.033620,"86.78,82.08"
2024-05-28_13-17-45.066440,"81.13,72.66"
2024-05-28_13-17-45.099189,"91.38,82.71"
2024-05-28_13-17-45.131976,"86.76,80.49"
2024-05-28_13-17-45.164813,"84.93,67.81"
2024-05-28_13-17-45.197471,"80.60,67.83"
2024-05-28_13-17-45.230159,"104.88,74.66"
2024-05-28_13-17-45.262927,"66.30,77.34"
2024-05-28_13-17-45.291690,"90.39,93.75"
2024-05-28_13-17-45.324449,"70.48,65.19"
2024-05-28_13-17-45.357236,"84.10,78.63"
2024-05-28_13-17-45.390030,"82.82,83.72"
2024-05-28_13-17-45.422741,"79.59,70.61"
2024-05-28_13-17-45.455522,"88.41,80.28"
2024-05-28_13-17-45.488204,"85.85,72.05"
2024-05-28_13-17-45.517032,"95.86,45.48"
2024-05-28_13-17-45.549791,"84.42,77.98"
2024-05-28_13-17-45.582547,"74.98,78.89"
2024-05-28_13-17-45.615333,"94.77,85.63"
2024-05-28_13-17-45.648048,"81.19,81.15"
2024-05-28_13-17-45.680773,"89.77,81.55"
2024-05-28_13-17-45.713430,"86.21,78.33"
2024-05-28_13-17-45.742297,"77.89,68.57"
2024-05-28_13-17-45.775051,"82.87,80.30"
2024-05-28_13-17-45.807767,"84.30,72.42"
2024-05-28_13-17-45.840534,"94.34,70.78"
2024-05-28_13-17-45.873350,"75.05,53.77"
2024-05-28_13-17-45.906023,"77.11,78.30"
2024-05-28_13-17-45.938728,"96.19,79.47"
2024-05-28_13-17-45.967520,"81.82,76.97"
2024-05-28_13-17-46.000344,"81.41,74.40"
2024-05-28_13-17-46.033158,"86.95,78.80"
2024-05-28_13-17-46.065847,"75.78,71.34"
2024-05-28_13-17-46.098599,"80.56,77.72"
2024-05-28_13-17-46.131345,"93.57,71.47"
2024-05-28_13-17-46.164033,"87.99,54.98"
2024-05-28_13-17-46.192767,"73.51,54.10"
2024-05-28_13-17-46.225549,"92.23,88.27"
2024-05-28_13-17-46.258344,"98.68,73.57"
2024-05-28_13-17-46.291113,"83.81,80.14"
2024-05-28_13-17-46.323892,"79.86,70.84"
2024-05-28_13-17-46.356621,"84.35,78.99"
2024-05-28_13-17-46.389316,"83.31,71.06"
2024-05-28_13-17-46.418083,"88.15,82.33"
2024-05-28_13-17-46.450857,"105.58,68.75"
2024-05-28_13-17-46.483692,"82.52,53.33"
2024-05-28_13-17-46.516386,"71.61,90.41"
2024-05-28_13-17-46.549113,"104.27,86.48"
2024-05-28_13-17-46.581908,"83.83,80.06"
2024-05-28_13-17-46.614595,"87.59,79.43"
2024-05-28_13-17-46.643371,"80.56,72.58"
2024-05-28_13-17-46.676149,"74.32,75.82"
2024-05-28_13-17-46.708897,"94.00,83.66"
2024-05-28_13-17-46.741693,"77.65,70.96"
2024-05-28_13-17-46.774457,"99.73,68.33"
2024-05-28_13-17-46.807173,"73.36,54.32"
2024-05-28_13-17-46.839891,"79.32,82.89"
2024-05-28_13-17-46.868646,"93.72,86.94"
2024-05-28_13-17-46.901442,"81.04,81.26"
2024-05-28_13-17-46.934157,"76.78,78.17"
2024-05-28_13-17-46.966985,"86.16,71.43"
2024-05-28_13-17-46.999763,"85.43,81.74"
2024-05-28_13-17-47.032594,"89.64,81.59"
2024-05-28_13-17-47.065168,"83.88,68.63"
2024-05-28_13-17-47.093991,"86.80,79.05"
2024-05-28_13-17-47.134271,"68.44,75.81"
2024-05-28_13-17-47.159695,"89.50,86.40"
2024-05-28_13-17-47.198445,"68.71,75.88"
2024-05-28_13-17-47.225255,"70.57,78.00"
2024-05-28_13-17-47.257791,"93.89,86.98"
2024-05-28_13-17-47.290476,"90.81,85.92"
2024-05-28_13-17-47.323174,"78.05,70.41"
2024-05-28_13-17-47.352069,"89.83,81.15"
2024-05-28_13-17-47.384791,"93.83,55.95"
2024-05-28_13-17-47.417553,"76.66,49.63"
2024-05-28_13-17-47.450353,"87.91,93.32"
2024-05-28_13-17-47.483091,"93.37,85.81"
2024-05-28_13-17-47.515786,"84.22,84.62"
2024-05-28_13-17-47.544579,"80.66,75.65"
2024-05-28_13-17-47.577263,"89.57,81.77"
2024-05-28_13-17-47.610057,"86.01,79.93"
2024-05-28_13-17-47.642789,"85.64,68.11"
2024-05-28_13-17-47.675563,"83.11,81.33"
2024-05-28_13-17-47.708342,"99.08,55.90"
2024-05-28_13-17-47.741019,"65.14,61.43"
2024-05-28_13-17-47.769787,"88.04,88.12"
2024-05-28_13-17-47.802544,"95.89,86.35"
2024-05-28_13-17-47.835302,"76.99,82.02"
2024-05-28_13-17-47.868075,"90.51,85.30"
2024-05-28_13-17-47.900840,"81.83,70.77"
2024-05-28_13-17-47.933604,"87.36,79.34"
2024-05-28_13-17-47.966343,"85.28,71.35"
2024-05-28_13-17-47.999075,"90.11,77.57"
2024-05-28_13-17-48.028149,"103.21,56.74"
2024-05-28_13-17-48.060645,"55.28,66.68"
2024-05-28_13-17-48.093641,"93.99,89.25"
2024-05-28_13-17-48.126338,"95.86,71.74"
2024-05-28_13-17-48.158908,"90.37,87.12"
2024-05-28_13-17-48.191567,"80.04,76.82"
2024-05-28_13-17-48.224325,"81.46,69.21"
2024-05-28_13-17-48.253119,"82.17,79.75"
2024-05-28_13-17-48.285890,"86.35,71.62"
2024-05-28_13-17-48.318742,"91.15,70.12"
2024-05-28_13-17-48.351462,"83.54,76.63"
2024-05-28_13-17-48.384191,"61.98,78.86"
2024-05-28_13-17-48.416929,"101.83,98.52"
2024-05-28_13-17-48.450021,"81.76,86.79"
2024-05-28_13-17-48.478551,"85.86,76.97"
2024-05-28_13-17-48.511390,"81.60,71.90"
2024-05-28_13-17-48.547996,"91.85,61.07"
2024-05-28_13-17-48.580872,"93.41,60.89"
2024-05-28_13-17-48.609507,"94.10,77.72"
2024-05-28_13-17-48.642195,"84.10,61.01"
2024-05-28_13-17-48.674914,"84.94,57.94"
2024-05-28_13-17-48.703701,"82.32,84.95"
2024-05-28_13-17-48.736528,"83.23,72.94"
2024-05-28_13-17-48.769271,"91.58,82.67"
2024-05-28_13-17-48.802059,"83.85,74.96"
2024-05-28_13-17-48.834761,"80.89,79.48"
2024-05-28_13-17-48.867463,"80.30,71.55"
2024-05-28_13-17-48.942436,"87.49,82.24"
2024-05-28_13-17-48.955869,"91.14,51.82"
2024-05-28_13-17-48.964214,"82.74,77.07"
2024-05-28_13-17-48.994575,"86.63,62.77"
2024-05-28_13-17-49.027317,"82.18,96.43"
2024-05-28_13-17-49.060107,"91.77,76.09"
2024-05-28_13-17-49.092752,"94.55,83.54"
2024-05-28_13-17-49.125460,"78.60,71.87"
2024-05-28_13-17-49.154251,"60.40,76.10"
2024-05-28_13-17-49.187067,"95.50,84.44"
2024-05-28_13-17-49.219733,"82.03,52.20"
2024-05-28_13-17-49.252562,"95.62,53.77"
2024-05-28_13-17-49.285304,"72.30,69.97"
2024-05-28_13-17-49.318066,"94.94,82.12"
2024-05-28_13-17-49.350745,"92.19,89.81"
2024-05-28_13-17-49.379493,"84.32,77.95"
2024-05-28_13-17-49.412294,"76.50,76.97"
2024-05-28_13-17-49.445031,"85.89,71.82"
2024-05-28_13-17-49.478057,"86.80,81.99"
2024-05-28_13-17-49.523704,"96.78,56.24"
2024-05-28_13-17-49.543372,"85.89,72.44"
2024-05-28_13-17-49.576119,"84.45,82.54"
2024-05-28_13-17-49.604991,"75.24,90.91"
2024-05-28_13-17-49.637596,"93.64,74.84"
2024-05-28_13-17-49.670339,"92.47,74.85"
2024-05-28_13-17-49.703066,"87.01,77.42"
2024-05-28_13-17-49.735871,"86.69,75.00"
2024-05-28_13-17-49.768692,"80.02,83.14"
2024-05-28_13-17-49.801337,"76.28,70.46"
2024-05-28_13-17-49.830147,"89.57,80.75"
2024-05-28_13-17-49.862885,"92.96,56.55"
2024-05-28_13-17-49.895619,"88.89,79.06"
2024-05-28_13-17-49.928364,"73.88,75.85"
2024-05-28_13-17-49.961207,"90.66,85.86"
2024-05-28_13-17-49.993980,"92.31,73.78"
2024-05-28_13-17-50.026662,"96.82,77.03"
2024-05-28_13-17-50.059365,"88.93,82.63"
2024-05-28_13-17-50.089006,"86.44,80.08"
2024-05-28_13-17-50.120916,"84.77,67.71"
2024-05-28_13-17-50.153689,"81.72,81.64"
2024-05-28_13-17-50.186449,"105.32,56.74"
2024-05-28_13-17-50.219203,"77.38,55.74"
2024-05-28_13-17-50.251913,"76.95,70.38"
2024-05-28_13-17-50.284588,"98.45,87.09"
2024-05-28_13-17-50.313423,"74.13,68.74"
2024-05-28_13-17-50.346178,"88.90,84.09"
2024-05-28_13-17-50.378948,"80.58,72.20"
2024-05-28_13-17-50.411698,"83.74,79.12"
2024-05-28_13-17-50.444470,"83.73,71.15"
2024-05-28_13-17-50.477171,"81.67,77.45"
2024-05-28_13-17-50.509887,"102.03,57.13"
2024-05-28_13-17-50.538662,"62.20,83.16"
2024-05-28_13-17-50.571500,"75.41,90.55"
2024-05-28_13-17-50.604287,"100.41,90.50"
2024-05-28_13-17-50.636978,"82.11,88.03"
2024-05-28_13-17-50.669768,"77.20,77.52"
2024-05-28_13-17-50.702440,"87.23,70.59"
2024-05-28_13-17-50.735142,"78.91,79.85"
2024-05-28_13-17-50.764045,"82.46,71.62"
2024-05-28_13-17-50.796744,"86.78,82.57"
2024-05-28_13-17-50.829516,"96.21,51.35"
2024-05-28_13-17-50.862292,"67.18,82.66"
2024-05-28_13-17-50.895084,"77.96,87.69"
2024-05-28_13-17-50.927767,"98.76,85.91"
2024-05-28_13-17-50.960435,"76.05,80.20"
2024-05-28_13-17-50.989245,"79.68,76.64"
2024-05-28_13-17-51.022074,"85.89,71.64"
2024-05-28_13-17-51.054833,"76.85,76.71"
2024-05-28_13-17-51.087611,"94.03,84.46"
2024-05-28_13-17-51.120375,"77.38,69.98"
2024-05-28_13-17-51.153007,"97.56,51.62"
2024-05-28_13-17-51.185843,"73.04,88.56"
2024-05-28_13-17-51.214625,"92.54,83.88"
2024-05-28_13-17-51.247385,"100.47,93.98"
2024-05-28_13-17-51.280096,"83.80,77.48"
2024-05-28_13-17-51.312827,"77.38,78.64"
2024-05-28_13-17-51.345627,"87.66,71.19"
2024-05-28_13-17-51.378379,"87.25,81.19"
2024-05-28_13-17-51.411038,"90.13,81.16"
2024-05-28_13-17-51.439827,"83.31,68.84"
2024-05-28_13-17-51.472582,"89.97,50.73"
2024-05-28_13-17-51.505410,"73.50,83.88"
2024-05-28_13-17-51.538157,"91.36,76.36"
2024-05-28_13-17-51.570948,"102.60,73.64"
2024-05-28_13-17-51.603632,"81.23,77.64"
2024-05-28_13-17-51.636353,"86.71,78.59"
2024-05-28_13-17-51.665092,"80.70,83.09"
2024-05-28_13-17-51.697926,"77.06,69.53"
2024-05-28_13-17-51.730641,"90.21,82.26"
2024-05-28_13-17-51.763448,"89.30,56.31"
2024-05-28_13-17-51.796186,"87.73,47.25"
2024-05-28_13-17-51.828894,"70.66,83.75"
2024-05-28_13-17-51.861600,"92.30,76.30"
2024-05-28_13-17-51.890399,"71.93,69.73"
2024-05-28_13-17-51.923171,"78.14,74.85"
2024-05-28_13-17-51.955980,"91.27,81.60"
2024-05-28_13-17-51.988699,"84.44,78.85"
2024-05-28_13-17-52.021472,"83.44,68.34"
2024-05-28_13-17-52.054187,"81.65,68.37"
2024-05-28_13-17-52.086905,"101.55,61.08"
2024-05-28_13-17-52.115709,"64.70,72.31"
2024-05-28_13-17-52.148414,"95.86,87.03"
2024-05-28_13-17-52.181217,"92.84,74.15"
2024-05-28_13-17-52.214213,"77.42,83.39"
2024-05-28_13-17-52.257863,"97.90,87.42"
2024-05-28_13-17-52.284035,"86.03,59.16"
2024-05-28_13-17-52.312422,"102.08,67.20"
2024-05-28_13-17-52.341031,"89.09,56.82"
2024-05-28_13-17-52.373830,"88.19,48.51"
2024-05-28_13-17-52.406500,"95.71,58.69"
2024-05-28_13-17-52.439290,"52.66,60.28"
2024-05-28_13-17-52.472021,"95.69,89.14"
2024-05-28_13-17-52.504877,"99.96,89.42"
2024-05-28_13-17-52.537484,"86.30,84.85"
2024-05-28_13-17-52.566266,"80.82,78.55"
2024-05-28_13-17-52.599470,"86.58,68.31"
2024-05-28_13-17-52.631824,"83.16,80.80"
2024-05-28_13-17-52.664525,"86.98,55.31"
2024-05-28_13-17-52.697294,"96.26,70.19"
2024-05-28_13-17-52.730048,"81.09,75.48"
2024-05-28_13-17-52.762748,"73.33,78.59"
2024-05-28_13-17-52.795467,"103.63,92.73"
2024-05-28_13-17-52.824340,"82.33,86.79"
2024-05-28_13-17-52.857045,"66.25,75.40"
2024-05-28_13-17-52.889858,"83.84,78.18"
2024-05-28_13-17-52.922580,"87.87,71.74"
2024-05-28_13-17-52.955364,"82.57,77.64"
2024-05-28_13-17-52.988103,"92.63,84.14"
2024-05-28_13-17-53.016962,"89.23,55.24"
2024-05-28_13-17-53.049615,"76.56,77.31"
2024-05-28_13-17-53.082328,"95.48,76.66"
2024-05-28_13-17-53.115113,"73.14,73.80"
2024-05-28_13-17-53.147868,"86.27,79.16"
2024-05-28_13-17-53.180637,"75.62,71.10"
2024-05-28_13-17-53.213336,"83.18,79.07"
2024-05-28_13-17-53.246033,"81.94,71.68"
2024-05-28_13-17-53.274860,"87.70,81.59"
2024-05-28_13-17-53.307612,"94.70,68.75"
2024-05-28_13-17-53.340354,"82.25,54.50"
2024-05-28_13-17-53.373170,"74.07,77.11"
2024-05-28_13-17-53.405941,"97.95,88.09"
2024-05-28_13-17-53.438649,"85.91,70.41"
2024-05-28_13-17-53.471340,"86.97,78.21"
2024-05-28_13-17-53.500159,"81.66,71.95"
2024-05-28_13-17-53.532894,"76.01,75.95"
2024-05-28_13-17-53.565957,"95.52,84.69"
2024-05-28_13-17-53.598489,"72.09,63.96"
2024-05-28_13-17-53.631234,"92.97,61.32"
2024-05-28_13-17-53.663913,"67.96,78.47"
2024-05-28_13-17-53.696621,"80.05,81.43"
2024-05-28_13-17-53.725399,"71.02,82.16"
2024-05-28_13-17-53.758181,"77.24,65.48"
2024-05-28_13-17-53.790976,"73.01,78.86"
2024-05-28_13-17-53.823767,"82.33,71.88"
2024-05-28_13-17-53.856577,"84.42,82.11"
2024-05-28_13-17-53.889345,"88.76,81.61"
2024-05-28_13-17-53.921917,"83.34,68.08"
2024-05-28_13-17-53.950674,"90.51,50.92"
2024-05-28_13-17-53.983470,"66.84,99.04"
2024-05-28_13-17-54.016256,"82.00,79.09"
2024-05-28_13-17-54.049009,"94.26,85.35"
2024-05-28_13-17-54.081904,"80.53,79.68"
2024-05-28_13-17-54.114507,"91.03,79.33"
2024-05-28_13-17-54.147173,"88.43,83.43"
2024-05-28_13-17-54.175992,"60.34,69.26"
2024-05-28_13-17-54.208725,"88.40,80.22"
2024-05-28_13-17-54.241542,"91.47,71.63"
2024-05-28_13-17-54.274290,"95.11,47.93"
2024-05-28_13-17-54.307058,"64.08,80.58"
2024-05-28_13-17-54.339781,"91.40,73.58"
2024-05-28_13-17-54.372531,"84.33,85.80"
2024-05-28_13-17-54.401255,"87.12,74.23"
2024-05-28_13-17-54.434043,"90.30,81.06"
2024-05-28_13-17-54.466775,"83.19,79.29"
2024-05-28_13-17-54.499580,"84.31,68.40"
2024-05-28_13-17-54.532348,"82.75,81.12"
2024-05-28_13-17-54.565073,"94.49,57.48"
2024-05-28_13-17-54.597769,"76.66,56.04"
2024-05-28_13-17-54.626548,"72.12,79.68"
2024-05-28_13-17-54.659348,"96.25,82.69"
2024-05-28_13-17-54.692105,"90.71,76.68"
2024-05-28_13-17-54.724829,"86.91,84.95"
2024-05-28_13-17-54.757612,"78.57,70.94"
2024-05-28_13-17-54.790642,"83.44,79.20"
2024-05-28_13-17-54.823060,"84.21,71.90"
2024-05-28_13-17-54.851797,"80.92,77.60"
2024-05-28_13-17-54.884593,"102.12,55.69"
2024-05-28_13-17-54.917445,"69.34,57.16"
2024-05-28_13-17-54.950135,"76.41,90.72"
2024-05-28_13-17-54.982905,"96.21,86.64"
2024-05-28_13-17-55.015683,"82.69,74.74"
2024-05-28_13-17-55.048334,"77.06,76.23"
2024-05-28_13-17-55.077082,"72.36,69.45"
2024-05-28_13-17-55.109850,"79.82,79.20"
2024-05-28_13-17-55.142627,"82.18,71.10"
2024-05-28_13-17-55.175406,"87.48,82.71"
2024-05-28_13-17-55.208310,"93.51,52.46"
2024-05-28_13-17-55.241011,"60.67,56.92"
2024-05-28_13-17-55.273660,"77.52,73.75"
2024-05-28_13-17-55.302384,"86.83,85.03"
2024-05-28_13-17-55.335109,"76.07,80.52"
2024-05-28_13-17-55.368171,"88.55,80.52"
2024-05-28_13-17-55.400765,"79.41,72.94"
2024-05-28_13-17-55.433462,"90.34,77.20"
2024-05-28_13-17-55.466329,"80.98,83.31"
2024-05-28_13-17-55.498930,"76.84,71.37"
2024-05-28_13-17-55.527789,"70.50,79.24"
2024-05-28_13-17-55.560500,"72.13,59.82"
2024-05-28_13-17-55.593303,"97.94,79.31"
2024-05-28_13-17-55.626016,"97.41,85.62"
2024-05-28_13-17-55.658719,"93.17,78.41"
2024-05-28_13-17-55.691479,"77.03,79.67"
2024-05-28_13-17-55.724194,"77.65,72.16"
2024-05-28_13-17-55.756908,"85.66,80.80"
2024-05-28_13-17-55.785830,"89.45,81.07"
2024-05-28_13-17-55.818542,"94.49,53.34"
2024-05-28_13-17-55.851398,"83.54,77.05"
2024-05-28_13-17-55.884091,"65.31,64.17"
2024-05-28_13-17-55.916874,"78.06,91.31"
2024-05-28_13-17-55.949515,"80.45,91.16"
2024-05-28_13-17-55.982202,"78.95,75.15"
2024-05-28_13-17-56.011135,"93.48,75.55"
2024-05-28_13-17-56.043761,"83.52,71.88"
2024-05-28_13-17-56.076597,"81.19,63.12"
2024-05-28_13-17-56.109353,"92.17,52.23"
2024-05-28_13-17-56.142139,"93.87,55.80"
2024-05-28_13-17-56.174780,"76.53,71.76"
2024-05-28_13-17-56.207485,"88.74,93.06"
2024-05-28_13-17-56.236326,"87.31,81.39"
2024-05-28_13-17-56.269039,"86.64,84.16"
2024-05-28_13-17-56.301833,"83.17,74.02"
2024-05-28_13-17-56.334679,"81.79,81.01"
2024-05-28_13-17-56.367344,"87.36,80.26"
2024-05-28_13-17-56.400080,"86.83,68.59"
2024-05-28_13-17-56.432764,"81.29,81.71"
2024-05-28_13-17-56.461693,"91.41,70.02"
2024-05-28_13-17-56.494348,"82.57,75.96"
2024-05-28_13-17-56.527145,"84.16,86.11"
2024-05-28_13-17-56.560000,"80.07,70.39"
2024-05-28_13-17-56.592742,"84.37,79.21"
2024-05-28_13-17-56.625381,"78.88,85.83"
2024-05-28_13-17-56.658087,"73.37,70.35"
2024-05-28_13-17-56.686902,"89.25,79.82"
2024-05-28_13-17-56.719614,"87.10,72.30"
2024-05-28_13-17-56.752357,"88.72,45.89"
2024-05-28_13-17-56.785205,"92.85,56.42"
2024-05-28_13-17-56.817948,"51.11,80.87"
2024-05-28_13-17-56.850680,"97.86,88.72"
2024-05-28_13-17-56.883350,"81.16,70.78"
2024-05-28_13-17-56.912107,"88.50,82.92"
2024-05-28_13-17-56.944938,"83.73,77.47"
2024-05-28_13-17-56.977842,"83.53,68.96"
2024-05-28_13-17-57.010436,"82.33,79.97"
2024-05-28_13-17-57.043230,"85.77,71.60"
2024-05-28_13-17-57.075927,"98.65,69.97"
2024-05-28_13-17-57.108687,"84.30,82.38"
2024-05-28_13-17-57.137403,"54.10,78.65"
2024-05-28_13-17-57.170161,"103.26,94.37"
2024-05-28_13-17-57.202926,"82.45,85.17"
2024-05-28_13-17-57.235738,"77.91,74.84"
2024-05-28_13-17-57.268480,"85.27,77.65"
2024-05-28_13-17-57.301247,"88.34,71.30"
2024-05-28_13-17-57.333923,"83.71,77.18"
2024-05-28_13-17-57.362709,"93.98,71.92"
2024-05-28_13-17-57.395436,"95.98,54.84"
2024-05-28_13-17-57.428228,"76.81,56.32"
2024-05-28_13-17-57.460997,"91.93,84.24"
2024-05-28_13-17-57.493737,"83.82,71.97"
2024-05-28_13-17-57.526537,"81.94,83.39"
2024-05-28_13-17-57.560222,"96.30,73.27"
2024-05-28_13-17-57.588003,"78.73,80.66"
2024-05-28_13-17-57.620773,"79.04,71.31"
2024-05-28_13-17-57.653519,"90.77,73.36"
2024-05-28_13-17-57.686471,"93.77,52.38"
2024-05-28_13-17-57.719104,"90.77,52.37"
2024-05-28_13-17-57.751791,"71.75,56.48"
2024-05-28_13-17-57.784513,"94.03,94.06"
2024-05-28_13-17-57.817252,"83.61,65.73"
2024-05-28_13-17-57.846050,"83.77,80.60"
2024-05-28_13-17-57.878799,"76.67,73.28"
2024-05-28_13-17-57.911544,"83.25,75.85"
2024-05-28_13-17-57.944307,"91.31,84.97"
2024-05-28_13-17-57.977116,"78.55,53.95"
2024-05-28_13-17-58.009815,"97.47,69.25"
2024-05-28_13-17-58.042481,"85.92,59.62"
2024-05-28_13-17-58.071305,"77.55,76.44"
2024-05-28_13-17-58.104122,"90.35,91.48"
2024-05-28_13-17-58.136839,"93.04,90.18"
2024-05-28_13-17-58.169623,"91.82,82.26"
2024-05-28_13-17-58.202422,"74.40,72.48"
2024-05-28_13-17-58.235102,"88.10,82.51"
2024-05-28_13-17-58.267839,"89.37,81.30"
2024-05-28_13-17-58.296631,"88.13,68.08"
2024-05-28_13-17-58.329368,"94.15,56.41"
2024-05-28_13-17-58.362151,"80.33,94.32"
2024-05-28_13-17-58.394878,"78.41,80.12"
2024-05-28_13-17-58.427632,"93.54,84.27"
2024-05-28_13-17-58.460392,"93.81,85.24"
2024-05-28_13-17-58.493038,"85.68,79.78"
2024-05-28_13-17-58.521871,"82.29,85.00"
2024-05-28_13-17-58.554599,"80.15,70.76"
2024-05-28_13-17-58.587398,"92.49,80.53"
2024-05-28_13-17-58.620226,"94.91,69.03"
2024-05-28_13-17-58.652935,"100.62,47.64"
2024-05-28_13-17-58.685625,"78.62,58.59"
2024-05-28_13-17-58.718352,"79.49,78.16"
2024-05-28_13-17-58.747120,"90.05,85.31"
2024-05-28_13-17-58.779922,"90.23,84.38"
2024-05-28_13-17-58.812702,"86.45,83.48"
2024-05-28_13-17-58.845432,"83.12,79.32"
2024-05-28_13-17-58.878200,"75.91,69.15"
2024-05-28_13-17-58.910914,"81.58,80.32"
2024-05-28_13-17-58.943602,"86.26,72.22"
2024-05-28_13-17-58.972400,"97.19,55.02"
2024-05-28_13-17-59.005254,"77.06,51.55"
2024-05-28_13-17-59.037937,"78.21,78.70"
2024-05-28_13-17-59.070723,"98.49,94.33"
2024-05-28_13-17-59.103479,"90.67,88.37"
2024-05-28_13-17-59.136242,"76.88,76.15"
2024-05-28_13-17-59.168914,"84.74,79.28"
2024-05-28_13-17-59.197655,"88.38,71.30"
2024-05-28_13-17-59.230429,"81.65,77.56"
2024-05-28_13-17-59.263192,"96.48,72.83"
2024-05-28_13-17-59.296169,"97.23,54.31"
2024-05-28_13-17-59.329001,"67.46,69.51"
2024-05-28_13-17-59.361531,"87.69,76.67"
2024-05-28_13-17-59.394211,"88.24,64.06"
2024-05-28_13-17-59.423095,"79.06,85.87"
2024-05-28_13-17-59.455789,"86.22,72.28"
2024-05-28_13-17-59.488554,"79.46,78.73"
2024-05-28_13-17-59.521355,"77.58,70.52"
2024-05-28_13-17-59.554100,"90.71,83.02"
2024-05-28_13-17-59.586832,"90.44,51.83"
2024-05-28_13-17-59.619530,"97.57,51.75"
2024-05-28_13-17-59.648273,"57.47,75.45"
2024-05-28_13-17-59.681034,"90.56,82.39"
2024-05-28_13-17-59.713986,"83.12,70.72"
2024-05-28_13-17-59.746569,"82.66,78.90"
2024-05-28_13-17-59.779321,"73.77,74.36"
2024-05-28_13-17-59.812077,"82.42,76.39"
2024-05-28_13-17-59.844822,"89.44,83.27"
2024-05-28_13-17-59.873534,"77.17,69.68"
2024-05-28_13-17-59.906338,"97.93,67.94"
2024-05-28_13-17-59.939064,"86.95,61.68"
2024-05-28_13-17-59.971864,"65.27,90.88"
2024-05-28_13-18-00.004599,"95.22,89.01"
2024-05-28_13-18-00.037442,"95.82,84.08"
2024-05-28_13-18-00.070083,"92.68,81.64"
2024-05-28_13-18-00.098876,"73.32,74.72"
2024-05-28_13-18-00.133758,"89.23,80.94"
2024-05-28_13-18-00.170814,"92.08,76.91"
2024-05-28_13-18-00.201991,"86.34,77.76"
2024-05-28_13-18-00.230438,"84.05,74.97"
2024-05-28_13-18-00.263688,"72.95,75.77"
2024-05-28_13-18-00.295618,"91.25,81.38"
2024-05-28_13-18-00.324409,"72.90,76.98"
2024-05-28_13-18-00.356932,"92.54,72.00"
2024-05-28_13-18-00.389857,"86.90,81.03"
2024-05-28_13-18-00.422555,"83.04,83.94"
2024-05-28_13-18-00.455434,"70.41,69.92"
2024-05-28_13-18-00.487996,"92.76,70.90"
2024-05-28_13-18-00.520717,"89.02,57.46"
2024-05-28_13-18-00.553379,"102.83,48.01"
2024-05-28_13-18-00.582185,"80.24,69.82"
2024-05-28_13-18-00.614987,"73.30,81.23"
2024-05-28_13-18-00.647799,"96.23,80.93"
2024-05-28_13-18-00.680527,"100.83,93.30"
2024-05-28_13-18-00.713313,"88.62,84.05"
2024-05-28_13-18-00.745944,"82.20,79.27"
2024-05-28_13-18-00.778673,"76.31,68.66"
2024-05-28_13-18-00.807470,"82.87,81.36"
2024-05-28_13-18-00.840208,"85.74,72.02"
2024-05-28_13-18-00.873022,"97.35,70.44"
2024-05-28_13-18-00.905787,"68.55,86.89"
2024-05-28_13-18-00.938523,"84.56,76.00"
2024-05-28_13-18-00.972000,"86.04,79.30"
2024-05-28_13-18-01.003946,"84.97,78.33"
2024-05-28_13-18-01.032725,"69.97,73.36"
2024-05-28_13-18-01.065571,"87.69,78.25"
2024-05-28_13-18-01.098355,"79.54,70.43"
2024-05-28_13-18-01.131078,"87.18,70.25"
2024-05-28_13-18-01.163875,"92.89,56.23"
2024-05-28_13-18-01.196514,"89.35,56.23"
2024-05-28_13-18-01.229181,"73.66,52.41"
2024-05-28_13-18-01.258130,"90.55,90.23"
2024-05-28_13-18-01.290832,"82.40,76.97"
2024-05-28_13-18-01.325279,"92.06,83.18"
2024-05-28_13-18-01.356473,"73.50,70.81"
2024-05-28_13-18-01.389149,"81.48,79.21"
2024-05-28_13-18-01.422041,"81.92,72.08"
2024-05-28_13-18-01.454543,"94.49,80.05"
2024-05-28_13-18-01.483296,"87.88,53.14"
2024-05-28_13-18-01.516103,"94.41,53.72"
2024-05-28_13-18-01.549389,"70.65,62.25"
2024-05-28_13-18-01.582285,"87.34,54.09"
2024-05-28_13-18-01.614703,"73.21,87.34"
2024-05-28_13-18-01.647118,"61.91,104.81"
2024-05-28_13-18-01.679768,"65.20,76.18"
2024-05-28_13-18-01.708574,"84.37,76.46"
2024-05-28_13-18-01.741362,"93.62,84.24"
2024-05-28_13-18-01.774135,"85.21,66.83"
2024-05-28_13-18-01.807008,"89.22,53.35"
2024-05-28_13-18-01.839718,"93.40,52.61"
2024-05-28_13-18-01.872397,"64.23,66.10"
2024-05-28_13-18-01.905067,"96.95,92.31"
2024-05-28_13-18-01.933875,"85.58,70.13"
2024-05-28_13-18-01.966621,"81.72,79.23"
2024-05-28_13-18-01.999466,"77.66,73.54"
2024-05-28_13-18-02.032174,"81.20,81.58"
2024-05-28_13-18-02.065112,"87.47,80.53"
2024-05-28_13-18-02.097821,"87.79,68.87"
2024-05-28_13-18-02.130346,"94.75,53.03"
2024-05-28_13-18-02.159222,"84.65,72.35"
2024-05-28_13-18-02.192005,"77.31,87.28"
2024-05-28_13-18-02.224699,"93.36,84.27"
2024-05-28_13-18-02.257418,"92.53,73.95"
2024-05-28_13-18-02.290224,"85.63,79.60"
2024-05-28_13-18-02.322992,"83.71,84.63"
2024-05-28_13-18-02.355650,"76.79,69.99"
2024-05-28_13-18-02.384457,"86.96,79.82"
2024-05-28_13-18-02.417270,"90.05,71.51"
2024-05-28_13-18-02.450156,"87.48,48.53"
2024-05-28_13-18-02.482796,"81.46,56.61"
2024-05-28_13-18-02.515530,"71.34,79.76"
2024-05-28_13-18-02.548213,"97.48,84.29"
2024-05-28_13-18-02.581017,"92.24,88.56"
2024-05-28_13-18-02.609703,"87.26,83.33"
2024-05-28_13-18-02.642869,"83.07,77.78"
2024-05-28_13-18-02.675299,"86.42,68.94"
2024-05-28_13-18-02.708027,"80.89,79.73"
2024-05-28_13-18-02.740820,"84.33,71.56"
2024-05-28_13-18-02.773537,"97.50,69.66"
2024-05-28_13-18-02.806229,"76.66,51.84"
2024-05-28_13-18-02.835074,"72.92,78.64"
2024-05-28_13-18-02.867774,"104.02,92.21"
2024-05-28_13-18-02.900593,"94.24,84.08"
2024-05-28_13-18-02.933300,"66.31,74.66"
2024-05-28_13-18-02.966055,"86.50,78.40"
2024-05-28_13-18-02.998903,"86.75,71.03"
2024-05-28_13-18-03.031535,"81.96,77.29"
2024-05-28_13-18-03.060312,"84.74,65.98"
2024-05-28_13-18-03.093031,"95.50,54.73"
2024-05-28_13-18-03.125816,"80.63,75.06"
2024-05-28_13-18-03.158545,"80.71,86.00"
2024-05-28_13-18-03.191355,"84.83,71.27"
2024-05-28_13-18-03.224156,"94.32,80.52"
2024-05-28_13-18-03.256822,"87.35,73.14"
2024-05-28_13-18-03.285548,"83.93,77.66"
2024-05-28_13-18-03.318341,"79.50,70.86"
2024-05-28_13-18-03.351071,"87.27,81.81"
2024-05-28_13-18-03.383860,"89.28,69.13"
2024-05-28_13-18-03.416618,"91.62,52.98"
2024-05-28_13-18-03.449400,"67.06,77.10"
2024-05-28_13-18-03.482112,"92.51,92.89"
2024-05-28_13-18-03.514804,"81.71,90.31"
2024-05-28_13-18-03.543625,"84.36,80.55"
2024-05-28_13-18-03.576354,"76.87,72.81"
2024-05-28_13-18-03.609143,"84.01,76.39"
2024-05-28_13-18-03.641920,"92.33,84.23"
2024-05-28_13-18-03.674688,"79.26,70.57"
2024-05-28_13-18-03.707384,"87.28,68.55"
2024-05-28_13-18-03.740094,"87.81,55.93"
2024-05-28_13-18-03.768889,"68.65,66.63"
2024-05-28_13-18-03.801716,"94.18,91.44"
2024-05-28_13-18-03.834453,"92.38,91.58"
2024-05-28_13-18-03.867174,"91.34,83.69"
2024-05-28_13-18-03.899960,"76.52,73.16"
2024-05-28_13-18-03.932708,"89.66,80.92"
2024-05-28_13-18-03.965384,"87.68,80.85"
2024-05-28_13-18-03.994158,"85.25,68.53"
2024-05-28_13-18-04.026969,"90.90,68.09"
2024-05-28_13-18-04.059714,"86.01,57.88"
2024-05-28_13-18-04.092517,"81.90,81.38"
2024-05-28_13-18-04.125237,"94.50,82.23"
2024-05-28_13-18-04.157961,"82.96,88.48"
2024-05-28_13-18-04.190685,"87.90,78.01"
2024-05-28_13-18-04.219490,"83.59,83.14"
2024-05-28_13-18-04.252210,"78.78,70.67"
2024-05-28_13-18-04.284974,"89.67,80.74"
2024-05-28_13-18-04.317779,"83.14,71.27"
2024-05-28_13-18-04.350501,"87.46,63.66"
2024-05-28_13-18-04.383254,"87.06,63.18"
2024-05-28_13-18-04.415979,"55.87,79.69"
2024-05-28_13-18-04.444754,"96.71,86.63"
2024-05-28_13-18-04.477501,"93.29,75.06"
2024-05-28_13-18-04.510281,"85.26,83.79"
2024-05-28_13-18-04.543086,"82.64,78.59"
2024-05-28_13-18-04.575883,"87.06,69.87"
2024-05-28_13-18-04.608528,"80.21,80.69"
2024-05-28_13-18-04.641251,"86.09,71.51"
2024-05-28_13-18-04.670018,"91.48,71.01"
2024-05-28_13-18-04.702763,"83.45,81.09"
2024-05-28_13-18-04.735580,"73.09,77.53"
2024-05-28_13-18-04.768314,"102.00,83.93"
2024-05-28_13-18-04.801160,"91.59,89.48"
2024-05-28_13-18-04.833832,"76.94,75.45"
2024-05-28_13-18-04.866517,"84.29,81.06"
2024-05-28_13-18-04.895271,"77.18,71.71"
2024-05-28_13-18-04.928226,"83.20,76.78"
2024-05-28_13-18-04.960834,"89.00,73.92"
2024-05-28_13-18-04.993616,"101.88,55.44"
2024-05-28_13-18-05.026369,"82.43,78.51"
2024-05-28_13-18-05.059164,"81.76,74.99"
2024-05-28_13-18-05.091821,"94.07,90.09"
2024-05-28_13-18-05.120581,"80.86,81.98"
2024-05-28_13-18-05.153353,"79.84,74.15"
2024-05-28_13-18-05.186189,"80.88,78.44"
2024-05-28_13-18-05.218860,"83.45,70.76"
2024-05-28_13-18-05.251685,"86.86,81.49"
2024-05-28_13-18-05.284412,"90.26,81.54"
2024-05-28_13-18-05.317149,"83.65,51.80"
2024-05-28_13-18-05.345878,"84.54,50.58"
2024-05-28_13-18-05.378631,"86.02,91.62"
2024-05-28_13-18-05.411404,"97.66,80.94"
2024-05-28_13-18-05.444221,"71.50,84.96"
2024-05-28_13-18-05.476939,"79.44,75.48"
2024-05-28_13-18-05.509701,"89.73,75.88"
2024-05-28_13-18-05.542368,"84.30,83.41"
2024-05-28_13-18-05.571318,"74.36,70.28"
2024-05-28_13-18-05.603945,"89.42,68.09"
2024-05-28_13-18-05.636708,"83.78,55.55"
2024-05-28_13-18-05.669487,"82.43,47.39"
2024-05-28_13-18-05.702210,"75.54,91.86"
2024-05-28_13-18-05.734974,"96.79,83.75"
2024-05-28_13-18-05.767697,"72.21,83.35"
2024-05-28_13-18-05.796418,"81.59,74.19"
2024-05-28_13-18-05.829228,"91.83,80.66"
2024-05-28_13-18-05.861991,"85.37,79.63"
2024-05-28_13-18-05.894710,"85.07,68.36"
2024-05-28_13-18-05.927505,"82.26,82.05"
2024-05-28_13-18-05.960296,"103.27,55.32"
2024-05-28_13-18-05.992957,"70.15,84.08"
2024-05-28_13-18-06.021751,"89.25,87.02"
2024-05-28_13-18-06.054500,"93.25,76.26"
2024-05-28_13-18-06.087251,"86.15,83.49"
2024-05-28_13-18-06.119997,"90.65,84.55"
2024-05-28_13-18-06.152777,"70.62,70.44"
2024-05-28_13-18-06.185553,"87.68,79.37"
2024-05-28_13-18-06.218251,"85.68,71.57"
2024-05-28_13-18-06.246988,"92.83,64.17"
2024-05-28_13-18-06.279762,"100.88,56.59"
2024-05-28_13-18-06.312514,"54.79,56.92"
2024-05-28_13-18-06.345316,"97.95,87.56"
2024-05-28_13-18-06.378042,"90.29,68.46"
2024-05-28_13-18-06.410803,"90.59,86.69"
2024-05-28_13-18-06.443530,"79.74,77.47"
2024-05-28_13-18-06.476218,"77.36,68.93"
2024-05-28_13-18-06.505009,"81.41,79.56"
2024-05-28_13-18-06.537796,"84.58,71.47"
2024-05-28_13-18-06.570558,"95.28,70.02"
2024-05-28_13-18-06.603338,"93.78,71.01"
2024-05-28_13-18-06.636108,"57.45,56.69"
2024-05-28_13-18-06.668811,"99.20,88.31"
2024-05-28_13-18-06.701518,"85.88,71.67"
2024-05-28_13-18-06.730300,"75.66,75.24"
2024-05-28_13-18-06.763067,"84.10,77.17"
2024-05-28_13-18-06.795913,"80.47,71.62"
2024-05-28_13-18-06.828610,"81.49,77.47"
2024-05-28_13-18-06.861393,"91.15,80.52"
2024-05-28_13-18-06.894125,"103.03,54.89"
2024-05-28_13-18-06.926811,"92.39,53.92"
2024-05-28_13-18-06.955592,"65.98,68.10"
2024-05-28_13-18-06.988367,"93.73,81.76"
2024-05-28_13-18-07.021100,"80.27,74.30"
2024-05-28_13-18-07.053887,"90.27,75.49"
2024-05-28_13-18-07.086720,"78.52,77.57"
2024-05-28_13-18-07.119368,"80.45,71.69"
2024-05-28_13-18-07.152100,"85.20,82.30"
2024-05-28_13-18-07.180887,"89.88,81.45"
2024-05-28_13-18-07.213645,"91.12,52.13"
2024-05-28_13-18-07.246393,"86.09,80.14"
2024-05-28_13-18-07.279188,"72.14,90.61"
2024-05-28_13-18-07.312000,"101.09,84.61"
2024-05-28_13-18-07.344682,"81.74,71.96"
2024-05-28_13-18-07.377418,"77.54,74.83"
2024-05-28_13-18-07.406161,"89.65,76.25"
2024-05-28_13-18-07.438935,"87.29,83.86"
2024-05-28_13-18-07.473325,"75.71,69.98"
2024-05-28_13-18-07.504580,"90.79,68.74"
2024-05-28_13-18-07.537305,"105.50,58.66"
2024-05-28_13-18-07.569963,"71.67,48.36"
2024-05-28_13-18-07.602653,"91.61,91.20"
2024-05-28_13-18-07.631464,"98.12,62.79"
2024-05-28_13-18-07.664198,"77.17,81.86"
2024-05-28_13-18-07.696986,"82.57,74.32"
2024-05-28_13-18-07.729735,"85.72,81.85"
2024-05-28_13-18-07.762492,"86.79,80.19"
2024-05-28_13-18-07.795306,"86.10,67.89"
2024-05-28_13-18-07.827971,"80.43,81.79"
2024-05-28_13-18-07.856731,"105.69,57.08"
2024-05-28_13-18-07.889513,"63.43,57.12"
2024-05-28_13-18-07.922288,"90.13,88.12"
2024-05-28_13-18-07.955039,"95.15,64.10"
2024-05-28_13-18-07.987814,"79.68,79.73"
2024-05-28_13-18-08.020558,"90.84,85.47"
2024-05-28_13-18-08.053308,"83.63,71.74"
2024-05-28_13-18-08.082062,"86.81,79.28"
2024-05-28_13-18-08.114808,"85.81,71.74"
2024-05-28_13-18-08.147516,"92.18,64.85"
2024-05-28_13-18-08.180373,"102.17,56.54"
2024-05-28_13-18-08.213079,"54.71,57.00"
2024-05-28_13-18-08.245825,"90.26,87.29"
2024-05-28_13-18-08.278488,"82.70,65.49"
2024-05-28_13-18-08.307271,"92.51,84.67"
2024-05-28_13-18-08.340090,"81.37,78.00"
2024-05-28_13-18-08.373165,"78.44,68.99"
2024-05-28_13-18-08.406933,"92.61,75.90"
2024-05-28_13-18-08.441640,"86.57,75.17"
2024-05-28_13-18-08.471808,"101.17,61.73"
2024-05-28_13-18-08.504299,"73.65,82.05"
2024-05-28_13-18-08.532610,"88.98,84.51"
2024-05-28_13-18-08.565529,"84.97,85.41"
2024-05-28_13-18-08.598194,"100.43,75.59"
2024-05-28_13-18-08.630948,"71.90,78.00"
2024-05-28_13-18-08.663825,"79.80,78.55"
2024-05-28_13-18-08.696756,"77.02,72.21"
2024-05-28_13-18-08.729138,"93.39,77.11"
2024-05-28_13-18-08.757916,"97.93,56.40"
2024-05-28_13-18-08.790948,"80.38,54.13"
2024-05-28_13-18-08.823552,"64.24,82.54"
2024-05-28_13-18-08.856480,"98.33,95.18"
2024-05-28_13-18-08.888962,"83.78,64.01"
2024-05-28_13-18-08.921655,"83.59,94.09"
2024-05-28_13-18-08.954402,"81.15,74.24"
2024-05-28_13-18-08.983194,"80.02,78.48"
2024-05-28_13-18-09.016041,"83.63,71.48"
2024-05-28_13-18-09.048770,"91.37,85.23"
2024-05-28_13-18-09.081495,"89.64,52.75"
2024-05-28_13-18-09.114240,"93.82,51.92"
2024-05-28_13-18-09.146966,"78.61,68.86"
2024-05-28_13-18-09.179693,"82.98,92.65"
2024-05-28_13-18-09.208412,"93.65,78.47"
2024-05-28_13-18-09.241236,"76.49,82.34"
2024-05-28_13-18-09.273958,"82.27,75.27"
2024-05-28_13-18-09.306734,"80.31,75.38"
2024-05-28_13-18-09.339487,"87.97,83.41"
2024-05-28_13-18-09.372283,"78.21,70.04"
2024-05-28_13-18-09.404926,"89.58,69.06"
2024-05-28_13-18-09.437647,"103.26,56.10"
2024-05-28_13-18-09.466509,"76.39,74.39"
2024-05-28_13-18-09.499299,"90.06,91.40"
2024-05-28_13-18-09.532060,"94.07,80.01"
2024-05-28_13-18-09.564789,"78.28,83.52"
2024-05-28_13-18-09.597547,"85.15,72.47"
2024-05-28_13-18-09.630380,"85.36,81.47"
2024-05-28_13-18-09.659113,"86.62,80.81"
2024-05-28_13-18-09.691812,"92.82,70.38"
2024-05-28_13-18-09.724550,"79.68,51.76"
2024-05-28_13-18-09.757314,"90.55,72.30"
2024-05-28_13-18-09.790041,"60.29,87.98"
2024-05-28_13-18-09.822855,"91.57,82.69"
2024-05-28_13-18-09.855672,"91.83,89.55"
2024-05-28_13-18-09.888235,"87.43,81.11"
2024-05-28_13-18-09.917199,"83.83,83.78"
2024-05-28_13-18-09.949877,"82.12,70.11"
2024-05-28_13-18-09.982626,"88.74,81.72"
2024-05-28_13-18-10.015375,"84.50,72.66"
2024-05-28_13-18-10.048123,"100.17,64.00"
2024-05-28_13-18-10.080821,"79.72,60.85"
2024-05-28_13-18-10.113545,"72.47,78.62"
2024-05-28_13-18-10.142363,"86.17,79.65"
2024-05-28_13-18-10.175139,"81.94,83.00"
2024-05-28_13-18-10.207854,"91.22,82.53"
2024-05-28_13-18-10.240640,"85.50,77.49"
2024-05-28_13-18-10.273401,"78.23,68.36"
2024-05-28_13-18-10.306123,"81.90,80.53"
2024-05-28_13-18-10.338806,"83.29,71.89"
2024-05-28_13-18-10.367633,"99.72,54.93"
2024-05-28_13-18-10.400447,"72.93,52.46"
2024-05-28_13-18-10.433175,"79.14,82.70"
2024-05-28_13-18-10.465907,"103.11,86.91"
2024-05-28_13-18-10.498688,"87.81,77.33"
2024-05-28_13-18-10.531391,"71.64,72.28"
2024-05-28_13-18-10.564102,"89.93,78.69"
2024-05-28_13-18-10.592917,"83.07,71.41"
2024-05-28_13-18-10.625676,"80.91,77.45"
2024-05-28_13-18-10.658453,"91.95,71.80"
2024-05-28_13-18-10.691210,"82.68,56.20"
2024-05-28_13-18-10.723959,"66.16,96.74"
2024-05-28_13-18-10.756692,"93.81,81.54"
2024-05-28_13-18-10.789404,"90.90,88.33"
2024-05-28_13-18-10.818180,"86.84,76.14"
2024-05-28_13-18-10.851066,"80.71,69.84"
2024-05-28_13-18-10.883717,"75.15,79.22"
2024-05-28_13-18-10.916548,"83.76,71.67"
2024-05-28_13-18-10.949327,"87.25,82.25"
2024-05-28_13-18-10.981975,"104.40,52.14"
2024-05-28_13-18-11.014687,"79.41,55.07"
2024-05-28_13-18-11.043455,"67.67,92.48"
2024-05-28_13-18-11.076216,"93.22,85.24"
2024-05-28_13-18-11.109016,"73.95,67.86"
2024-05-28_13-18-11.141782,"76.89,77.51"
2024-05-28_13-18-11.174552,"83.16,72.14"
2024-05-28_13-18-11.207272,"81.82,76.34"
2024-05-28_13-18-11.239971,"94.15,83.25"
2024-05-28_13-18-11.268727,"76.26,69.84"
2024-05-28_13-18-11.301553,"104.89,51.80"
2024-05-28_13-18-11.334285,"66.20,86.69"
2024-05-28_13-18-11.367119,"92.05,82.14"
2024-05-28_13-18-11.399835,"92.23,84.99"
2024-05-28_13-18-11.432650,"84.75,75.78"
2024-05-28_13-18-11.465276,"77.55,78.14"
2024-05-28_13-18-11.494016,"80.09,72.05"
2024-05-28_13-18-11.526791,"87.95,80.85"
2024-05-28_13-18-11.559532,"89.04,81.96"
2024-05-28_13-18-11.605217,"87.52,55.26"
2024-05-28_13-18-11.625123,"80.44,56.92"
2024-05-28_13-18-11.657830,"84.08,86.04"
2024-05-28_13-18-11.690545,"83.51,77.57"
2024-05-28_13-18-11.719307,"84.00,77.88"
2024-05-28_13-18-11.752060,"83.01,77.07"
2024-05-28_13-18-11.784818,"86.69,75.78"
2024-05-28_13-18-11.817607,"79.68,83.99"
2024-05-28_13-18-11.850388,"74.27,69.47"
2024-05-28_13-18-11.883134,"88.85,81.49"
2024-05-28_13-18-11.915825,"88.50,71.05"
2024-05-28_13-18-11.944664,"90.72,48.35"
2024-05-28_13-18-11.977330,"73.08,92.58"
2024-05-28_13-18-12.010182,"97.08,82.65"
2024-05-28_13-18-12.042902,"90.81,74.67"
2024-05-28_13-18-12.075674,"78.17,73.52"
2024-05-28_13-18-12.108461,"91.31,81.21"
2024-05-28_13-18-12.141128,"85.10,79.37"
2024-05-28_13-18-12.169866,"84.37,67.77"
2024-05-28_13-18-12.202667,"82.26,81.04"
2024-05-28_13-18-12.235409,"90.46,55.22"
2024-05-28_13-18-12.268172,"71.93,82.07"
2024-05-28_13-18-12.300954,"89.13,87.13"
2024-05-28_13-18-12.333733,"96.14,84.10"
2024-05-28_13-18-12.366425,"74.48,82.38"
2024-05-28_13-18-12.395133,"90.14,83.90"
2024-05-28_13-18-12.427910,"70.84,70.69"
2024-05-28_13-18-12.460737,"87.40,79.86"
2024-05-28_13-18-12.493463,"84.94,71.57"
2024-05-28_13-18-12.526234,"90.46,63.31"
2024-05-28_13-18-12.559003,"97.56,57.04"
2024-05-28_13-18-12.591700,"51.00,59.16"
2024-05-28_13-18-12.620426,"88.54,90.84"
2024-05-28_13-18-12.653197,"81.52,67.11"
2024-05-28_13-18-12.685950,"84.70,83.25"
2024-05-28_13-18-12.718720,"83.35,77.95"
2024-05-28_13-18-12.751492,"86.09,68.77"
2024-05-28_13-18-12.784254,"82.74,79.53"
2024-05-28_13-18-12.816978,"83.76,71.47"
2024-05-28_13-18-12.849683,"100.04,70.52"
2024-05-28_13-18-12.878468,"81.74,76.25"
2024-05-28_13-18-12.911232,"70.83,78.48"
2024-05-28_13-18-12.944000,"106.31,93.26"
2024-05-28_13-18-12.976850,"92.65,86.50"
2024-05-28_13-18-13.009634,"77.29,74.64"
2024-05-28_13-18-13.042264,"85.53,79.55"
2024-05-28_13-18-13.075064,"78.84,71.71"
2024-05-28_13-18-13.103892,"81.81,77.10"
2024-05-28_13-18-13.136530,"93.40,56.40"
2024-05-28_13-18-13.169307,"91.95,55.60"
2024-05-28_13-18-13.202080,"72.25,51.87"
2024-05-28_13-18-13.234832,"85.97,92.59"
2024-05-28_13-18-13.267553,"75.68,71.12"
2024-05-28_13-18-13.300234,"84.45,77.71"
2024-05-28_13-18-13.329113,"75.66,73.36"
2024-05-28_13-18-13.361821,"83.40,79.72"
2024-05-28_13-18-13.394571,"79.07,70.95"
2024-05-28_13-18-13.427446,"87.23,82.14"
2024-05-28_13-18-13.460162,"90.04,70.02"
2024-05-28_13-18-13.492844,"91.73,52.67"
2024-05-28_13-18-13.559708,"68.88,59.34"
2024-05-28_13-18-13.560784,"80.01,78.31"
2024-05-28_13-18-13.593341,"80.71,78.72"
2024-05-28_13-18-13.624608,"86.89,91.48"
2024-05-28_13-18-13.652879,"79.58,77.56"
2024-05-28_13-18-13.685454,"90.68,56.81"
2024-05-28_13-18-13.718182,"91.49,57.57"
2024-05-28_13-18-13.750820,"77.54,70.47"
2024-05-28_13-18-13.779681,"86.50,68.45"
2024-05-28_13-18-13.812407,"84.77,84.16"
2024-05-28_13-18-13.845172,"81.13,73.03"
2024-05-28_13-18-13.877991,"95.47,92.78"
2024-05-28_13-18-13.910717,"84.66,79.91"
2024-05-28_13-18-13.943422,"84.69,80.71"
2024-05-28_13-18-13.977163,"79.10,73.04"
2024-05-28_13-18-14.004964,"91.26,81.37"
2024-05-28_13-18-14.037880,"89.80,81.82"
2024-05-28_13-18-14.070482,"86.37,69.21"
2024-05-28_13-18-14.104330,"92.97,50.91"
2024-05-28_13-18-14.136210,"75.81,98.78"
2024-05-28_13-18-14.168804,"73.68,73.82"
2024-05-28_13-18-14.201422,"93.41,95.30"
2024-05-28_13-18-14.230182,"75.98,69.80"
2024-05-28_13-18-14.263938,"83.34,76.58"
2024-05-28_13-18-14.296054,"103.04,80.19"
2024-05-28_13-18-14.328863,"86.46,66.29"
2024-05-28_13-18-14.361341,"96.30,78.36"
2024-05-28_13-18-14.394001,"98.40,55.90"
2024-05-28_13-18-14.426719,"85.74,45.46"
2024-05-28_13-18-14.455508,"74.91,78.05"
2024-05-28_13-18-14.488313,"87.43,75.46"
2024-05-28_13-18-14.521054,"81.30,76.23"
2024-05-28_13-18-14.553848,"75.16,76.70"
2024-05-28_13-18-14.587825,"84.58,82.53"
2024-05-28_13-18-14.619276,"89.73,80.44"
2024-05-28_13-18-14.651989,"87.47,57.72"
2024-05-28_13-18-14.680814,"82.29,69.20"
2024-05-28_13-18-14.713541,"95.01,55.69"
2024-05-28_13-18-14.746324,"76.92,56.72"
2024-05-28_13-18-14.779041,"76.08,88.77"
2024-05-28_13-18-14.811880,"94.54,86.34"
2024-05-28_13-18-14.844617,"86.51,84.66"
2024-05-28_13-18-14.877275,"89.88,85.04"
2024-05-28_13-18-14.906221,"81.36,70.61"
2024-05-28_13-18-14.938890,"87.54,81.98"
2024-05-28_13-18-14.971607,"94.47,63.68"
2024-05-28_13-18-15.004379,"86.77,57.25"
2024-05-28_13-18-15.037097,"102.47,56.41"
2024-05-28_13-18-15.069863,"55.89,79.63"
2024-05-28_13-18-15.102586,"80.88,85.64"
2024-05-28_13-18-15.131335,"82.43,64.93"
2024-05-28_13-18-15.164119,"84.23,85.16"
2024-05-28_13-18-15.196870,"80.84,78.59"
2024-05-28_13-18-15.229641,"82.01,70.22"
2024-05-28_13-18-15.262376,"81.54,79.72"
2024-05-28_13-18-15.295514,"84.79,71.25"
2024-05-28_13-18-15.327998,"90.53,80.42"
2024-05-28_13-18-15.360588,"56.03,68.43"
2024-05-28_13-18-15.389451,"91.12,77.20"
2024-05-28_13-18-15.422155,"85.93,82.04"
2024-05-28_13-18-15.454916,"83.52,78.08"
2024-05-28_13-18-15.487653,"81.21,74.80"
2024-05-28_13-18-15.520595,"87.78,77.57"
2024-05-28_13-18-15.553138,"80.65,69.63"
2024-05-28_13-18-15.585949,"81.36,80.09"
2024-05-28_13-18-15.614909,"94.46,72.17"
2024-05-28_13-18-15.647685,"89.75,55.91"
2024-05-28_13-18-15.680296,"68.64,84.38"
2024-05-28_13-18-15.712962,"91.35,91.10"
