timestamp,EMG
2024-05-28_16-49-21.712371,71.74
2024-05-28_16-49-21.745349,82.39
2024-05-28_16-49-21.777774,72.23
2024-05-28_16-49-21.810508,71.34
2024-05-28_16-49-21.843307,83.70
2024-05-28_16-49-21.876143,83.39
2024-05-28_16-49-21.908767,59.56
2024-05-28_16-49-21.938563,68.81
2024-05-28_16-49-21.975539,69.38
2024-05-28_16-49-22.003239,72.35
2024-05-28_16-49-22.035811,81.96
2024-05-28_16-49-22.068593,72.69
2024-05-28_16-49-22.101353,70.97
2024-05-28_16-49-22.134128,81.36
2024-05-28_16-49-22.162787,80.31
2024-05-28_16-49-22.195536,71.94
2024-05-28_16-49-22.228316,62.98
2024-05-28_16-49-22.261117,73.80
2024-05-28_16-49-22.293841,71.94
2024-05-28_16-49-22.326627,82.29
2024-05-28_16-49-22.359347,72.03
2024-05-28_16-49-22.392102,79.09
2024-05-28_16-49-22.420832,90.22
2024-05-28_16-49-22.453587,63.03
2024-05-28_16-49-22.486349,69.58
2024-05-28_16-49-22.519101,62.75
2024-05-28_16-49-22.551891,71.91
2024-05-28_16-49-22.584707,71.83
2024-05-28_16-49-22.617453,82.15
2024-05-28_16-49-22.647393,72.56
2024-05-28_16-49-22.678909,82.32
2024-05-28_16-49-22.711718,79.93
2024-05-28_16-49-22.745060,78.69
2024-05-28_16-49-22.777179,75.90
2024-05-28_16-49-22.809945,64.57
2024-05-28_16-49-22.842703,73.42
2024-05-28_16-49-22.871379,72.13
2024-05-28_16-49-22.904164,82.02
2024-05-28_16-49-22.936928,72.05
2024-05-28_16-49-22.969683,76.73
2024-05-28_16-49-23.002491,89.75
2024-05-28_16-49-23.035586,63.28
2024-05-28_16-49-23.068008,68.41
2024-05-28_16-49-23.100630,62.90
2024-05-28_16-49-23.129623,71.82
2024-05-28_16-49-23.162257,72.01
2024-05-28_16-49-23.195959,82.04
2024-05-28_16-49-23.227789,71.91
2024-05-28_16-49-23.260493,80.72
2024-05-28_16-49-23.293275,89.40
2024-05-28_16-49-23.326066,76.92
2024-05-28_16-49-23.375672,62.54
2024-05-28_16-49-23.401565,64.82
2024-05-28_16-49-23.430807,73.38
2024-05-28_16-49-23.453003,71.87
2024-05-28_16-49-23.486304,82.05
2024-05-28_16-49-23.518579,72.03
2024-05-28_16-49-23.551412,87.02
2024-05-28_16-49-23.580781,98.07
2024-05-28_16-49-23.612749,63.82
2024-05-28_16-49-23.645690,58.49
2024-05-28_16-49-23.678434,66.48
2024-05-28_16-49-23.711088,71.77
2024-05-28_16-49-23.744128,72.04
2024-05-28_16-49-23.776714,82.20
2024-05-28_16-49-23.805410,71.43
2024-05-28_16-49-23.838059,78.67
2024-05-28_16-49-23.870795,86.90
2024-05-28_16-49-23.903620,62.71
2024-05-28_16-49-23.936313,65.48
2024-05-28_16-49-23.969128,65.82
2024-05-28_16-49-24.001923,73.11
2024-05-28_16-49-24.034608,71.87
2024-05-28_16-49-24.063319,82.16
2024-05-28_16-49-24.096780,71.98
2024-05-28_16-49-24.129052,85.72
2024-05-28_16-49-24.161611,98.35
2024-05-28_16-49-24.194422,62.15
2024-05-28_16-49-24.227271,71.71
2024-05-28_16-49-24.259902,65.17
2024-05-28_16-49-24.288598,71.72
2024-05-28_16-49-24.321384,71.86
2024-05-28_16-49-24.354135,82.17
2024-05-28_16-49-24.386898,71.55
2024-05-28_16-49-24.419677,82.51
2024-05-28_16-49-24.452496,93.46
2024-05-28_16-49-24.485412,80.74
2024-05-28_16-49-24.513902,85.34
2024-05-28_16-49-24.546698,70.85
2024-05-28_16-49-24.579491,89.91
2024-05-28_16-49-24.612249,72.76
2024-05-28_16-49-24.649665,71.64
2024-05-28_16-49-24.677789,81.98
2024-05-28_16-49-24.710542,72.20
2024-05-28_16-49-24.743237,72.04
2024-05-28_16-49-24.771960,88.33
2024-05-28_16-49-24.804712,74.16
2024-05-28_16-49-24.837480,72.19
2024-05-28_16-49-24.870278,72.33
2024-05-28_16-49-24.903163,72.23
2024-05-28_16-49-24.935809,72.08
2024-05-28_16-49-24.968441,81.82
2024-05-28_16-49-24.997293,72.01
2024-05-28_16-49-25.034885,72.40
2024-05-28_16-49-25.062874,77.39
2024-05-28_16-49-25.095586,76.62
2024-05-28_16-49-25.128342,72.22
2024-05-28_16-49-25.161111,60.28
2024-05-28_16-49-25.193752,70.38
2024-05-28_16-49-25.222478,57.00
2024-05-28_16-49-25.255276,67.17
2024-05-28_16-49-25.288006,71.14
2024-05-28_16-49-25.320757,71.83
2024-05-28_16-49-25.353556,72.63
2024-05-28_16-49-25.386341,71.38
2024-05-28_16-49-25.419109,81.86
2024-05-28_16-49-25.451742,72.23
2024-05-28_16-49-25.480502,74.90
2024-05-28_16-49-25.513251,73.97
2024-05-28_16-49-25.546073,81.90
2024-05-28_16-49-25.578900,71.76
2024-05-28_16-49-25.611613,72.20
2024-05-28_16-49-25.644367,72.04
2024-05-28_16-49-25.677014,71.97
2024-05-28_16-49-25.705831,82.16
2024-05-28_16-49-25.738566,62.91
2024-05-28_16-49-25.771309,73.86
2024-05-28_16-49-25.804098,51.94
2024-05-28_16-49-25.836855,111.76
2024-05-28_16-49-25.869618,84.67
2024-05-28_16-49-25.902347,57.75
2024-05-28_16-49-25.931064,68.36
2024-05-28_16-49-25.963824,64.19
2024-05-28_16-49-25.996582,80.93
2024-05-28_16-49-26.029450,52.05
2024-05-28_16-49-26.062190,32.81
2024-05-28_16-49-26.094896,16.83
2024-05-28_16-49-26.127646,15.45
2024-05-28_16-49-26.156333,31.49
2024-05-28_16-49-26.189260,50.86
2024-05-28_16-49-26.221882,61.28
2024-05-28_16-49-26.254664,85.62
2024-05-28_16-49-26.287464,62.32
2024-05-28_16-49-26.320147,73.51
2024-05-28_16-49-26.352944,88.52
2024-05-28_16-49-26.385614,70.46
2024-05-28_16-49-26.414445,71.49
2024-05-28_16-49-26.447296,82.39
2024-05-28_16-49-26.479891,92.08
2024-05-28_16-49-26.512848,71.17
2024-05-28_16-49-26.545497,75.67
2024-05-28_16-49-26.578189,70.21
2024-05-28_16-49-26.611000,75.68
2024-05-28_16-49-26.639675,73.02
2024-05-28_16-49-26.672475,64.16
2024-05-28_16-49-26.705266,44.63
2024-05-28_16-49-26.738050,14.89
2024-05-28_16-49-26.770712,5.00
2024-05-28_16-49-26.803500,7.79
2024-05-28_16-49-26.836270,11.62
2024-05-28_16-49-26.864905,16.95
2024-05-28_16-49-26.897719,19.12
2024-05-28_16-49-26.930520,17.50
2024-05-28_16-49-26.963310,17.93
2024-05-28_16-49-26.996133,19.96
2024-05-28_16-49-27.028776,22.14
2024-05-28_16-49-27.061529,22.98
2024-05-28_16-49-27.090206,18.76
2024-05-28_16-49-27.123445,21.52
2024-05-28_16-49-27.155761,21.63
2024-05-28_16-49-27.188542,28.07
2024-05-28_16-49-27.221314,25.08
2024-05-28_16-49-27.254059,24.62
2024-05-28_16-49-27.286816,23.90
2024-05-28_16-49-27.319518,27.36
2024-05-28_16-49-27.351832,25.06
2024-05-28_16-49-27.389931,25.10
2024-05-28_16-49-27.414251,24.72
2024-05-28_16-49-27.446810,26.37
2024-05-28_16-49-27.479327,29.07
2024-05-28_16-49-27.512111,25.20
2024-05-28_16-49-27.544916,23.84
2024-05-28_16-49-27.574405,23.87
2024-05-28_16-49-27.606354,23.92
2024-05-28_16-49-27.639065,25.02
2024-05-28_16-49-27.671889,21.75
2024-05-28_16-49-27.704591,22.47
2024-05-28_16-49-27.737351,21.67
2024-05-28_16-49-27.770104,25.72
2024-05-28_16-49-27.802800,22.34
2024-05-28_16-49-27.831541,21.91
2024-05-28_16-49-27.864280,20.98
2024-05-28_16-49-27.897208,22.82
2024-05-28_16-49-27.929855,19.69
2024-05-28_16-49-27.962702,19.31
2024-05-28_16-49-27.995527,18.12
2024-05-28_16-49-28.028302,20.13
2024-05-28_16-49-28.056859,23.21
2024-05-28_16-49-28.089622,19.20
2024-05-28_16-49-28.122431,19.21
2024-05-28_16-49-28.155189,18.95
2024-05-28_16-49-28.187947,19.75
2024-05-28_16-49-28.220688,20.71
2024-05-28_16-49-28.253404,18.17
2024-05-28_16-49-28.282115,18.92
2024-05-28_16-49-28.314884,17.68
2024-05-28_16-49-28.347730,22.07
2024-05-28_16-49-28.380391,19.35
2024-05-28_16-49-28.413261,18.45
2024-05-28_16-49-28.445987,18.79
2024-05-28_16-49-28.478681,20.76
2024-05-28_16-49-28.507431,19.83
2024-05-28_16-49-28.540151,18.27
2024-05-28_16-49-28.573834,18.38
2024-05-28_16-49-28.605706,19.14
2024-05-28_16-49-28.638509,21.96
2024-05-28_16-49-28.671236,18.78
2024-05-28_16-49-28.704034,18.88
2024-05-28_16-49-28.736664,19.39
2024-05-28_16-49-28.765439,19.54
2024-05-28_16-49-28.798255,20.90
2024-05-28_16-49-28.830957,18.39
2024-05-28_16-49-28.863715,19.01
2024-05-28_16-49-28.896606,18.41
2024-05-28_16-49-28.929254,22.45
2024-05-28_16-49-28.962061,20.23
2024-05-28_16-49-28.990748,19.72
2024-05-28_16-49-29.023460,19.00
2024-05-28_16-49-29.056228,21.34
2024-05-28_16-49-29.089023,20.02
2024-05-28_16-49-29.121800,17.90
2024-05-28_16-49-29.154571,18.18
2024-05-28_16-49-29.187338,18.31
2024-05-28_16-49-29.216008,21.60
2024-05-28_16-49-29.248791,19.95
2024-05-28_16-49-29.281620,20.49
2024-05-28_16-49-29.314285,20.18
2024-05-28_16-49-29.347353,21.07
2024-05-28_16-49-29.379841,23.73
2024-05-28_16-49-29.412707,20.43
2024-05-28_16-49-29.445302,20.32
2024-05-28_16-49-29.474105,19.27
2024-05-28_16-49-29.506838,23.60
2024-05-28_16-49-29.539570,24.13
2024-05-28_16-49-29.572378,24.37
2024-05-28_16-49-29.605348,24.67
2024-05-28_16-49-29.637921,27.75
2024-05-28_16-49-29.670690,25.81
2024-05-28_16-49-29.699395,24.16
2024-05-28_16-49-29.732052,26.49
2024-05-28_16-49-29.764831,50.01
2024-05-28_16-49-29.797712,69.28
2024-05-28_16-49-29.830436,62.92
2024-05-28_16-49-29.863159,73.39
2024-05-28_16-49-29.897362,73.62
2024-05-28_16-49-29.925929,70.29
2024-05-28_16-49-29.957657,65.66
2024-05-28_16-49-29.990141,72.10
2024-05-28_16-49-30.023111,49.76
2024-05-28_16-49-30.055633,71.16
2024-05-28_16-49-30.088453,47.20
2024-05-28_16-49-30.121170,64.37
2024-05-28_16-49-30.149868,63.56
2024-05-28_16-49-30.182613,64.55
2024-05-28_16-49-30.215402,69.32
2024-05-28_16-49-30.248138,82.74
2024-05-28_16-49-30.281005,73.17
2024-05-28_16-49-30.313956,70.98
2024-05-28_16-49-30.346605,45.27
2024-05-28_16-49-30.379212,22.40
2024-05-28_16-49-30.407934,16.55
2024-05-28_16-49-30.440676,13.03
2024-05-28_16-49-30.473375,11.26
2024-05-28_16-49-30.506217,7.25
2024-05-28_16-49-30.539009,11.26
2024-05-28_16-49-30.571715,7.62
2024-05-28_16-49-30.604453,9.14
2024-05-28_16-49-30.633190,5.25
2024-05-28_16-49-30.665939,6.90
2024-05-28_16-49-30.698736,5.25
2024-05-28_16-49-30.731471,0.00
2024-05-28_16-49-30.764230,0.00
2024-05-28_16-49-30.797140,0.00
2024-05-28_16-49-30.829688,0.00
2024-05-28_16-49-30.860039,0.00
2024-05-28_16-49-30.891503,0.00
2024-05-28_16-49-30.924284,0.00
2024-05-28_16-49-30.956767,0.00
2024-05-28_16-49-30.989568,0.00
2024-05-28_16-49-31.022281,0.00
2024-05-28_16-49-31.055037,0.00
2024-05-28_16-49-31.083720,0.00
2024-05-28_16-49-31.116498,0.00
2024-05-28_16-49-31.149222,0.00
2024-05-28_16-49-31.182040,0.00
2024-05-28_16-49-31.214767,0.00
2024-05-28_16-49-31.247654,0.00
2024-05-28_16-49-31.280289,0.00
2024-05-28_16-49-31.309065,0.00
2024-05-28_16-49-31.341784,0.00
2024-05-28_16-49-31.375147,0.00
2024-05-28_16-49-31.407332,0.00
2024-05-28_16-49-31.440087,0.00
2024-05-28_16-49-31.472959,0.00
2024-05-28_16-49-31.505632,0.00
2024-05-28_16-49-31.538323,0.00
2024-05-28_16-49-31.567026,0.00
2024-05-28_16-49-31.599798,0.00
2024-05-28_16-49-31.632592,0.00
2024-05-28_16-49-31.665298,0.00
2024-05-28_16-49-31.698105,0.00
2024-05-28_16-49-31.731480,0.00
2024-05-28_16-49-31.763714,0.00
2024-05-28_16-49-31.792334,0.00
2024-05-28_16-49-31.825020,0.00
2024-05-28_16-49-31.857858,0.00
2024-05-28_16-49-31.890655,0.00
2024-05-28_16-49-31.924260,0.00
2024-05-28_16-49-31.956200,0.00
2024-05-28_16-49-31.988904,0.00
2024-05-28_16-49-32.017604,0.00
2024-05-28_16-49-32.050393,0.00
2024-05-28_16-49-32.083154,0.00
2024-05-28_16-49-32.115898,0.00
2024-05-28_16-49-32.148877,0.00
2024-05-28_16-49-32.181428,0.00
2024-05-28_16-49-32.214157,0.00
2024-05-28_16-49-32.242915,0.00
2024-05-28_16-49-32.275661,0.00
2024-05-28_16-49-32.308479,0.00
2024-05-28_16-49-32.341217,0.00
2024-05-28_16-49-32.396474,0.00
2024-05-28_16-49-32.409790,0.00
2024-05-28_16-49-32.439537,0.00
2024-05-28_16-49-32.468161,0.00
2024-05-28_16-49-32.500951,0.00
2024-05-28_16-49-32.533668,0.00
2024-05-28_16-49-32.566481,10.97
2024-05-28_16-49-32.599259,11.44
2024-05-28_16-49-32.631974,10.55
2024-05-28_16-49-32.664836,10.54
2024-05-28_16-49-32.697466,10.69
2024-05-28_16-49-32.726656,11.93
2024-05-28_16-49-32.759042,10.79
2024-05-28_16-49-32.791750,11.14
2024-05-28_16-49-32.824951,11.65
2024-05-28_16-49-32.857456,12.96
2024-05-28_16-49-32.890016,11.76
2024-05-28_16-49-32.923506,12.42
2024-05-28_16-49-32.951484,11.98
2024-05-28_16-49-32.984277,11.28
2024-05-28_16-49-33.017070,12.87
2024-05-28_16-49-33.049833,10.95
2024-05-28_16-49-33.082578,11.07
2024-05-28_16-49-33.115343,11.63
2024-05-28_16-49-33.148126,12.95
2024-05-28_16-49-33.176714,12.16
2024-05-28_16-49-33.209548,12.16
2024-05-28_16-49-33.242294,11.42
2024-05-28_16-49-33.275151,11.13
2024-05-28_16-49-33.307874,11.78
2024-05-28_16-49-33.340598,10.40
2024-05-28_16-49-33.373859,10.16
2024-05-28_16-49-33.406090,11.22
2024-05-28_16-49-33.434832,12.23
2024-05-28_16-49-33.467572,11.04
2024-05-28_16-49-33.500374,12.01
2024-05-28_16-49-33.533090,11.70
2024-05-28_16-49-33.565885,11.41
2024-05-28_16-49-33.598617,11.93
2024-05-28_16-49-33.631342,11.11
2024-05-28_16-49-33.660112,9.83
2024-05-28_16-49-33.692882,11.59
2024-05-28_16-49-33.725585,12.88
2024-05-28_16-49-33.758390,12.06
2024-05-28_16-49-33.791182,11.59
2024-05-28_16-49-33.824533,12.14
2024-05-28_16-49-33.856664,11.69
2024-05-28_16-49-33.885387,12.91
2024-05-28_16-49-33.918123,11.07
2024-05-28_16-49-33.950945,11.31
2024-05-28_16-49-33.983636,9.98
2024-05-28_16-49-34.016390,13.50
2024-05-28_16-49-34.049217,10.81
2024-05-28_16-49-34.081953,12.19
2024-05-28_16-49-34.114653,11.57
2024-05-28_16-49-34.143429,11.98
2024-05-28_16-49-34.176141,13.15
2024-05-28_16-49-34.208926,10.42
2024-05-28_16-49-34.241725,11.80
2024-05-28_16-49-34.274525,10.42
2024-05-28_16-49-34.307255,12.29
2024-05-28_16-49-34.339980,12.08
2024-05-28_16-49-34.368687,10.76
2024-05-28_16-49-34.401490,12.16
2024-05-28_16-49-34.434198,11.43
2024-05-28_16-49-34.466974,12.75
2024-05-28_16-49-34.499756,10.30
2024-05-28_16-49-34.532534,10.03
2024-05-28_16-49-34.565233,10.41
2024-05-28_16-49-34.593983,11.82
2024-05-28_16-49-34.626827,9.65
2024-05-28_16-49-34.659653,10.74
2024-05-28_16-49-34.692315,11.16
2024-05-28_16-49-34.725074,11.58
2024-05-28_16-49-34.757871,12.88
2024-05-28_16-49-34.790572,10.54
2024-05-28_16-49-34.823286,10.46
2024-05-28_16-49-34.852029,9.40
2024-05-28_16-49-34.884780,8.96
2024-05-28_16-49-34.918955,11.98
2024-05-28_16-49-34.951338,9.60
2024-05-28_16-49-34.983064,11.17
2024-05-28_16-49-35.015856,11.00
2024-05-28_16-49-35.048565,13.01
2024-05-28_16-49-35.077570,10.68
2024-05-28_16-49-35.110105,10.41
2024-05-28_16-49-35.142811,9.80
2024-05-28_16-49-35.175534,10.76
2024-05-28_16-49-35.208390,9.66
2024-05-28_16-49-35.241195,10.04
2024-05-28_16-49-35.273802,9.87
2024-05-28_16-49-35.302608,11.17
2024-05-28_16-49-35.335338,12.66
2024-05-28_16-49-35.368074,11.13
2024-05-28_16-49-35.400890,10.40
2024-05-28_16-49-35.433619,9.88
2024-05-28_16-49-35.466365,8.69
2024-05-28_16-49-35.499196,10.41
2024-05-28_16-49-35.527781,9.99
2024-05-28_16-49-35.560579,10.47
2024-05-28_16-49-35.593356,10.04
2024-05-28_16-49-35.626106,12.79
2024-05-28_16-49-35.659229,10.98
2024-05-28_16-49-35.691677,10.54
2024-05-28_16-49-35.724561,9.71
2024-05-28_16-49-35.757116,10.55
2024-05-28_16-49-35.785864,10.15
2024-05-28_16-49-35.818640,10.33
2024-05-28_16-49-35.851445,9.05
2024-05-28_16-49-35.884504,10.74
2024-05-28_16-49-35.917067,12.59
2024-05-28_16-49-35.949721,10.88
2024-05-28_16-49-35.982455,10.68
2024-05-28_16-49-36.011168,10.25
2024-05-28_16-49-36.043927,9.42
2024-05-28_16-49-36.076642,11.25
2024-05-28_16-49-36.109486,8.95
2024-05-28_16-49-36.142221,9.14
2024-05-28_16-49-36.174943,9.01
2024-05-28_16-49-36.207706,11.57
2024-05-28_16-49-36.236402,11.02
2024-05-28_16-49-36.269170,10.69
2024-05-28_16-49-36.302011,10.69
2024-05-28_16-49-36.334733,10.26
2024-05-28_16-49-36.367504,10.92
2024-05-28_16-49-36.400240,8.82
2024-05-28_16-49-36.432987,8.67
2024-05-28_16-49-36.461705,9.15
2024-05-28_16-49-36.494514,11.14
2024-05-28_16-49-36.527243,9.87
2024-05-28_16-49-36.560021,10.99
2024-05-28_16-49-36.592760,10.69
2024-05-28_16-49-36.625563,10.54
2024-05-28_16-49-36.658301,11.27
2024-05-28_16-49-36.690967,9.42
2024-05-28_16-49-36.719718,6.90
2024-05-28_16-49-36.752538,8.39
2024-05-28_16-49-36.785279,10.30
2024-05-28_16-49-36.818034,10.31
2024-05-28_16-49-36.850869,10.04
2024-05-28_16-49-36.883572,10.85
2024-05-28_16-49-36.916264,10.11
2024-05-28_16-49-36.945017,11.76
2024-05-28_16-49-36.977753,9.11
2024-05-28_16-49-37.010598,10.58
2024-05-28_16-49-37.043326,9.41
2024-05-28_16-49-37.076050,11.88
2024-05-28_16-49-37.108876,11.43
2024-05-28_16-49-37.143437,14.07
2024-05-28_16-49-37.170532,15.23
2024-05-28_16-49-37.203164,19.28
2024-05-28_16-49-37.235850,25.07
2024-05-28_16-49-37.268602,21.70
2024-05-28_16-49-37.301399,21.50
2024-05-28_16-49-37.334141,26.86
2024-05-28_16-49-37.366898,39.93
2024-05-28_16-49-37.399640,28.95
2024-05-28_16-49-37.428490,63.38
2024-05-28_16-49-37.461111,60.01
2024-05-28_16-49-37.493881,85.05
2024-05-28_16-49-37.526561,73.51
2024-05-28_16-49-37.559420,13.77
2024-05-28_16-49-37.592169,4.75
2024-05-28_16-49-37.624850,0.00
2024-05-28_16-49-37.653662,0.00
2024-05-28_16-49-37.686354,0.00
2024-05-28_16-49-37.719107,0.00
2024-05-28_16-49-37.751901,0.00
2024-05-28_16-49-37.784694,0.00
2024-05-28_16-49-37.817430,0.00
2024-05-28_16-49-37.850208,0.00
2024-05-28_16-49-37.878932,0.00
2024-05-28_16-49-37.911663,0.00
2024-05-28_16-49-37.944450,0.00
2024-05-28_16-49-37.977369,0.00
2024-05-28_16-49-38.009937,0.00
2024-05-28_16-49-38.042739,0.00
2024-05-28_16-49-38.075414,0.00
2024-05-28_16-49-38.104172,4.50
2024-05-28_16-49-38.136925,0.00
2024-05-28_16-49-38.169695,22.33
2024-05-28_16-49-38.202472,22.55
2024-05-28_16-49-38.235313,23.09
2024-05-28_16-49-38.268039,15.25
2024-05-28_16-49-38.300811,14.71
2024-05-28_16-49-38.329477,10.26
2024-05-28_16-49-38.362188,9.69
2024-05-28_16-49-38.394985,9.40
2024-05-28_16-49-38.427709,10.15
2024-05-28_16-49-38.460493,7.27
2024-05-28_16-49-38.493305,8.23
2024-05-28_16-49-38.526005,8.67
2024-05-28_16-49-38.554734,8.14
2024-05-28_16-49-38.587476,9.15
2024-05-28_16-49-38.620301,10.11
2024-05-28_16-49-38.666159,9.97
2024-05-28_16-49-38.685780,9.82
2024-05-28_16-49-38.718554,11.02
2024-05-28_16-49-38.751349,8.69
2024-05-28_16-49-38.783978,6.73
2024-05-28_16-49-38.812819,7.25
2024-05-28_16-49-38.845561,11.47
2024-05-28_16-49-38.878263,10.28
2024-05-28_16-49-38.911098,10.12
2024-05-28_16-49-38.943856,10.97
2024-05-28_16-49-38.976562,10.54
2024-05-28_16-49-39.009318,11.51
2024-05-28_16-49-39.038020,10.31
2024-05-28_16-49-39.070821,9.10
2024-05-28_16-49-39.103582,11.36
2024-05-28_16-49-39.136416,12.38
2024-05-28_16-49-39.169102,10.17
2024-05-28_16-49-39.201872,10.84
2024-05-28_16-49-39.234671,10.54
2024-05-28_16-49-39.263325,10.83
2024-05-28_16-49-39.296175,12.13
2024-05-28_16-49-39.328906,9.97
2024-05-28_16-49-39.361639,8.98
2024-05-28_16-49-39.394412,8.69
2024-05-28_16-49-39.427180,9.63
2024-05-28_16-49-39.459890,11.60
2024-05-28_16-49-39.492682,9.14
2024-05-28_16-49-39.521377,10.16
2024-05-28_16-49-39.554119,10.11
2024-05-28_16-49-39.586910,11.75
2024-05-28_16-49-39.619764,9.82
2024-05-28_16-49-39.652573,9.82
2024-05-28_16-49-39.685205,8.98
2024-05-28_16-49-39.717869,10.75
2024-05-28_16-49-39.746749,8.23
2024-05-28_16-49-39.779564,7.43
2024-05-28_16-49-39.812233,7.11
2024-05-28_16-49-39.844949,9.27
2024-05-28_16-49-39.877793,10.41
2024-05-28_16-49-39.910505,8.95
2024-05-28_16-49-39.943211,9.38
2024-05-28_16-49-39.971900,9.10
2024-05-28_16-49-40.004726,8.81
2024-05-28_16-49-40.037487,9.38
2024-05-28_16-49-40.070198,6.54
2024-05-28_16-49-40.103020,7.79
2024-05-28_16-49-40.135781,6.54
2024-05-28_16-49-40.168467,7.42
2024-05-28_16-49-40.197172,8.99
2024-05-28_16-49-40.229961,8.82
2024-05-28_16-49-40.262737,9.25
2024-05-28_16-49-40.295485,8.81
2024-05-28_16-49-40.328220,10.25
2024-05-28_16-49-40.361018,8.09
2024-05-28_16-49-40.393816,6.36
2024-05-28_16-49-40.423022,4.50
2024-05-28_16-49-40.455234,4.50
2024-05-28_16-49-40.488020,5.00
2024-05-28_16-49-40.520765,7.25
2024-05-28_16-49-40.553529,6.91
2024-05-28_16-49-40.586361,8.81
2024-05-28_16-49-40.619061,10.25
2024-05-28_16-49-40.651757,8.52
2024-05-28_16-49-40.680565,8.52
2024-05-28_16-49-40.713363,8.39
2024-05-28_16-49-40.746192,4.75
2024-05-28_16-49-40.778871,4.50
2024-05-28_16-49-40.811608,0.00
2024-05-28_16-49-40.844373,6.72
2024-05-28_16-49-40.877137,5.25
2024-05-28_16-49-40.905764,9.65
2024-05-28_16-49-40.938565,8.67
2024-05-28_16-49-40.971313,8.52
2024-05-28_16-49-41.004105,8.52
2024-05-28_16-49-41.036872,8.52
2024-05-28_16-49-41.069604,6.54
2024-05-28_16-49-41.102370,4.50
2024-05-28_16-49-41.131184,6.36
2024-05-28_16-49-41.163917,6.54
2024-05-28_16-49-41.196581,6.90
2024-05-28_16-49-41.238564,5.00
2024-05-28_16-49-41.262194,8.68
2024-05-28_16-49-41.294906,9.10
2024-05-28_16-49-41.327903,8.95
2024-05-28_16-49-41.356401,9.88
2024-05-28_16-49-41.389096,6.72
2024-05-28_16-49-41.421870,4.75
2024-05-28_16-49-41.454679,6.36
2024-05-28_16-49-41.487382,6.54
2024-05-28_16-49-41.520185,7.08
2024-05-28_16-49-41.552959,6.91
2024-05-28_16-49-41.581604,8.97
2024-05-28_16-49-41.614383,8.82
2024-05-28_16-49-41.647127,10.38
2024-05-28_16-49-41.679962,8.95
2024-05-28_16-49-41.712668,8.67
2024-05-28_16-49-41.745456,8.23
2024-05-28_16-49-41.778156,6.90
2024-05-28_16-49-41.810912,6.54
2024-05-28_16-49-41.839636,8.23
2024-05-28_16-49-41.872417,5.00
2024-05-28_16-49-41.905187,8.99
2024-05-28_16-49-41.937956,10.27
2024-05-28_16-49-41.970757,9.39
2024-05-28_16-49-42.003493,9.24
2024-05-28_16-49-42.036204,9.24
2024-05-28_16-49-42.064937,8.68
2024-05-28_16-49-42.097806,8.53
2024-05-28_16-49-42.130425,6.54
2024-05-28_16-49-42.163358,7.94
2024-05-28_16-49-42.196014,5.00
2024-05-28_16-49-42.228756,7.42
2024-05-28_16-49-42.261496,9.14
2024-05-28_16-49-42.290189,9.11
2024-05-28_16-49-42.323657,9.38
2024-05-28_16-49-42.355818,9.24
2024-05-28_16-49-42.388556,10.50
2024-05-28_16-49-42.421262,8.23
2024-05-28_16-49-42.454147,6.72
2024-05-28_16-49-42.486789,4.75
2024-05-28_16-49-42.515535,9.51
2024-05-28_16-49-42.548303,5.25
2024-05-28_16-49-42.580977,9.14
2024-05-28_16-49-42.613865,8.71
2024-05-28_16-49-42.646570,9.27
2024-05-28_16-49-42.679354,10.38
2024-05-28_16-49-42.712122,8.68
2024-05-28_16-49-42.740837,8.66
2024-05-28_16-49-42.773678,8.84
2024-05-28_16-49-42.806279,8.75
2024-05-28_16-49-42.839086,7.94
2024-05-28_16-49-42.871897,8.67
2024-05-28_16-49-42.904726,12.66
2024-05-28_16-49-42.937356,5.50
2024-05-28_16-49-42.970080,8.84
2024-05-28_16-49-42.998929,5.50
2024-05-28_16-49-43.032163,11.27
2024-05-28_16-49-43.064526,7.11
2024-05-28_16-49-43.097118,9.25
2024-05-28_16-49-43.129987,8.53
2024-05-28_16-49-43.162789,10.03
2024-05-28_16-49-43.195335,0.00
2024-05-28_16-49-43.224216,8.23
2024-05-28_16-49-43.256843,9.40
2024-05-28_16-49-43.289643,4.50
2024-05-28_16-49-43.322381,4.75
2024-05-28_16-49-43.355170,8.38
2024-05-28_16-49-43.387983,7.85
2024-05-28_16-49-43.420648,7.94
2024-05-28_16-49-43.449386,6.00
2024-05-28_16-49-43.482093,0.00
2024-05-28_16-49-43.514895,10.26
2024-05-28_16-49-43.547721,10.26
2024-05-28_16-49-43.580393,4.75
2024-05-28_16-49-43.613401,0.00
2024-05-28_16-49-43.646008,0.00
2024-05-28_16-49-43.681909,4.50
2024-05-28_16-49-43.707433,6.91
2024-05-28_16-49-43.740236,6.90
2024-05-28_16-49-43.773091,0.00
2024-05-28_16-49-43.805722,4.75
2024-05-28_16-49-43.838479,7.27
2024-05-28_16-49-43.871509,5.00
2024-05-28_16-49-43.899959,4.50
2024-05-28_16-49-43.932671,0.00
2024-05-28_16-49-43.965467,4.75
2024-05-28_16-49-43.998297,6.73
2024-05-28_16-49-44.030947,7.30
2024-05-28_16-49-44.063732,5.50
2024-05-28_16-49-44.096542,0.00
2024-05-28_16-49-44.129289,6.36
2024-05-28_16-49-44.157981,4.75
2024-05-28_16-49-44.190717,4.75
2024-05-28_16-49-44.223989,7.27
2024-05-28_16-49-44.256260,0.00
2024-05-28_16-49-44.289048,5.50
2024-05-28_16-49-44.321860,8.97
2024-05-28_16-49-44.354472,0.00
2024-05-28_16-49-44.386763,6.54
2024-05-28_16-49-44.422820,6.91
2024-05-28_16-49-44.449019,0.00
2024-05-28_16-49-44.481788,0.00
2024-05-28_16-49-44.514380,4.50
2024-05-28_16-49-44.547259,0.00
2024-05-28_16-49-44.579855,0.00
2024-05-28_16-49-44.608618,0.00
2024-05-28_16-49-44.641479,0.00
2024-05-28_16-49-44.673993,0.00
2024-05-28_16-49-44.706873,0.00
2024-05-28_16-49-44.739583,0.00
2024-05-28_16-49-44.772383,4.50
2024-05-28_16-49-44.805135,9.01
2024-05-28_16-49-44.833788,9.31
2024-05-28_16-49-44.866551,4.50
2024-05-28_16-49-44.899324,6.36
2024-05-28_16-49-44.932166,10.40
2024-05-28_16-49-44.964870,12.58
2024-05-28_16-49-44.998413,11.59
2024-05-28_16-49-45.030490,14.13
2024-05-28_16-49-45.063087,12.93
2024-05-28_16-49-45.091847,12.41
2024-05-28_16-49-45.125044,11.43
2024-05-28_16-49-45.157654,11.70
2024-05-28_16-49-45.190136,12.56
2024-05-28_16-49-45.222917,12.83
2024-05-28_16-49-45.255680,11.77
2024-05-28_16-49-45.288385,11.72
2024-05-28_16-49-45.317273,14.51
2024-05-28_16-49-45.349918,11.42
2024-05-28_16-49-45.382823,11.40
2024-05-28_16-49-45.415461,11.55
2024-05-28_16-49-45.448188,11.27
2024-05-28_16-49-45.481009,13.30
2024-05-28_16-49-45.513743,11.19
2024-05-28_16-49-45.542407,12.63
2024-05-28_16-49-45.575125,12.25
2024-05-28_16-49-45.607991,13.33
2024-05-28_16-49-45.640876,13.41
2024-05-28_16-49-45.673778,11.42
2024-05-28_16-49-45.706249,11.70
2024-05-28_16-49-45.738977,11.69
2024-05-28_16-49-45.771766,12.76
2024-05-28_16-49-45.800434,11.49
2024-05-28_16-49-45.833424,11.21
2024-05-28_16-49-45.865964,11.90
2024-05-28_16-49-45.898792,14.28
2024-05-28_16-49-45.931502,12.40
2024-05-28_16-49-45.964270,12.28
2024-05-28_16-49-45.997037,11.14
2024-05-28_16-49-46.025967,11.70
2024-05-28_16-49-46.058502,13.26
2024-05-28_16-49-46.091332,11.41
2024-05-28_16-49-46.124110,10.45
2024-05-28_16-49-46.156789,11.14
2024-05-28_16-49-46.189564,13.24
2024-05-28_16-49-46.222285,13.37
2024-05-28_16-49-46.251040,12.05
2024-05-28_16-49-46.283773,13.38
2024-05-28_16-49-46.324313,13.46
2024-05-28_16-49-46.356049,13.27
2024-05-28_16-49-46.382055,11.85
2024-05-28_16-49-46.414853,10.45
2024-05-28_16-49-46.447775,6.90
2024-05-28_16-49-46.476380,0.00
2024-05-28_16-49-46.509033,0.00
2024-05-28_16-49-46.541771,4.50
2024-05-28_16-49-46.574782,4.50
2024-05-28_16-49-46.607339,6.90
2024-05-28_16-49-46.640929,8.20
2024-05-28_16-49-46.674001,9.44
2024-05-28_16-49-46.705577,10.68
2024-05-28_16-49-46.734302,11.96
2024-05-28_16-49-46.767101,13.34
2024-05-28_16-49-46.799892,12.45
2024-05-28_16-49-46.832618,7.08
2024-05-28_16-49-46.865366,6.72
2024-05-28_16-49-46.898236,0.00
2024-05-28_16-49-46.931120,0.00
2024-05-28_16-49-46.959560,5.00
2024-05-28_16-49-46.992361,6.91
2024-05-28_16-49-47.025056,8.68
2024-05-28_16-49-47.057963,8.67
2024-05-28_16-49-47.090629,11.14
2024-05-28_16-49-47.123436,8.68
2024-05-28_16-49-47.156179,8.68
2024-05-28_16-49-47.184860,8.67
2024-05-28_16-49-47.217627,12.09
2024-05-28_16-49-47.250498,13.30
2024-05-28_16-49-47.283149,19.48
2024-05-28_16-49-47.315931,72.53
2024-05-28_16-49-47.348863,59.43
2024-05-28_16-49-47.381476,17.57
2024-05-28_16-49-47.410134,15.55
2024-05-28_16-49-47.442950,16.55
2024-05-28_16-49-47.475753,16.69
2024-05-28_16-49-47.508525,17.70
2024-05-28_16-49-47.541218,17.28
2024-05-28_16-49-47.574279,15.80
2024-05-28_16-49-47.606755,17.03
2024-05-28_16-49-47.639474,22.65
2024-05-28_16-49-47.668211,61.79
2024-05-28_16-49-47.700970,92.32
2024-05-28_16-49-47.733739,70.73
2024-05-28_16-49-47.766496,60.84
2024-05-28_16-49-47.799286,68.71
2024-05-28_16-49-47.832000,54.82
2024-05-28_16-49-47.864718,45.62
2024-05-28_16-49-47.893503,41.09
2024-05-28_16-49-47.926242,34.97
2024-05-28_16-49-47.959060,31.24
2024-05-28_16-49-47.991770,22.64
2024-05-28_16-49-48.024661,19.39
2024-05-28_16-49-48.057307,13.81
2024-05-28_16-49-48.090071,13.87
2024-05-28_16-49-48.118735,12.37
2024-05-28_16-49-48.151491,8.99
2024-05-28_16-49-48.184269,9.80
2024-05-28_16-49-48.217017,0.00
2024-05-28_16-49-48.249849,7.50
2024-05-28_16-49-48.282536,7.27
2024-05-28_16-49-48.315332,4.75
2024-05-28_16-49-48.345233,0.00
2024-05-28_16-49-48.376759,11.73
2024-05-28_16-49-48.409589,15.13
2024-05-28_16-49-48.442345,16.88
2024-05-28_16-49-48.475050,24.26
2024-05-28_16-49-48.507899,16.66
2024-05-28_16-49-48.540645,25.31
2024-05-28_16-49-48.574006,12.41
2024-05-28_16-49-48.602089,26.53
2024-05-28_16-49-48.634799,10.13
2024-05-28_16-49-48.669709,8.66
2024-05-28_16-49-48.700613,19.67
2024-05-28_16-49-48.733103,6.90
2024-05-28_16-49-48.765918,11.44
2024-05-28_16-49-48.798596,9.14
2024-05-28_16-49-48.827424,10.66
2024-05-28_16-49-48.860113,12.51
2024-05-28_16-49-48.892909,11.58
2024-05-28_16-49-48.925775,12.47
2024-05-28_16-49-48.958399,14.24
2024-05-28_16-49-48.991179,19.34
2024-05-28_16-49-49.024317,18.08
2024-05-28_16-49-49.052593,23.88
2024-05-28_16-49-49.085447,23.44
2024-05-28_16-49-49.118311,18.58
2024-05-28_16-49-49.150945,19.85
2024-05-28_16-49-49.183673,18.39
2024-05-28_16-49-49.216447,14.43
2024-05-28_16-49-49.249248,19.10
2024-05-28_16-49-49.281954,23.17
2024-05-28_16-49-49.310653,10.47
2024-05-28_16-49-49.343455,9.71
2024-05-28_16-49-49.376156,23.86
2024-05-28_16-49-49.409037,5.00
2024-05-28_16-49-49.441719,17.94
2024-05-28_16-49-49.474444,9.92
2024-05-28_16-49-49.507205,8.88
2024-05-28_16-49-49.535927,14.33
2024-05-28_16-49-49.568731,17.16
2024-05-28_16-49-49.601470,17.67
2024-05-28_16-49-49.634316,15.73
2024-05-28_16-49-49.667033,11.26
2024-05-28_16-49-49.699790,17.08
2024-05-28_16-49-49.732529,15.35
2024-05-28_16-49-49.761251,15.44
2024-05-28_16-49-49.794035,15.89
2024-05-28_16-49-49.826699,15.76
2024-05-28_16-49-49.859535,14.86
2024-05-28_16-49-49.892347,12.46
2024-05-28_16-49-49.925039,18.94
2024-05-28_16-49-49.957846,16.61
2024-05-28_16-49-49.990512,17.47
2024-05-28_16-49-50.019217,15.38
2024-05-28_16-49-50.052038,14.98
2024-05-28_16-49-50.084816,11.14
2024-05-28_16-49-50.117562,11.83
2024-05-28_16-49-50.150332,16.09
2024-05-28_16-49-50.183126,17.87
2024-05-28_16-49-50.215793,16.14
2024-05-28_16-49-50.244566,15.74
2024-05-28_16-49-50.277276,16.78
2024-05-28_16-49-50.310067,19.62
2024-05-28_16-49-50.342852,15.33
2024-05-28_16-49-50.377821,14.51
2024-05-28_16-49-50.408415,16.00
2024-05-28_16-49-50.441100,16.53
2024-05-28_16-49-50.469826,16.67
2024-05-28_16-49-50.502599,13.03
2024-05-28_16-49-50.535335,11.56
2024-05-28_16-49-50.568147,19.69
2024-05-28_16-49-50.600886,15.70
2024-05-28_16-49-50.633625,16.53
2024-05-28_16-49-50.666408,17.02
2024-05-28_16-49-50.699168,16.22
2024-05-28_16-49-50.727880,15.13
2024-05-28_16-49-50.760651,19.51
2024-05-28_16-49-50.793430,17.16
2024-05-28_16-49-50.826113,17.13
2024-05-28_16-49-50.858943,15.29
2024-05-28_16-49-50.891728,15.71
2024-05-28_16-49-50.924489,17.50
2024-05-28_16-49-50.953172,15.97
2024-05-28_16-49-50.985859,14.47
2024-05-28_16-49-51.018646,15.41
2024-05-28_16-49-51.051466,15.36
2024-05-28_16-49-51.084213,11.79
2024-05-28_16-49-51.116959,14.85
2024-05-28_16-49-51.149853,16.13
2024-05-28_16-49-51.178432,17.74
2024-05-28_16-49-51.211198,17.57
2024-05-28_16-49-51.243946,19.37
2024-05-28_16-49-51.276759,14.88
2024-05-28_16-49-51.309500,18.33
2024-05-28_16-49-51.342279,17.70
2024-05-28_16-49-51.374942,17.06
2024-05-28_16-49-51.403716,17.88
2024-05-28_16-49-51.436456,13.94
2024-05-28_16-49-51.469255,21.39
2024-05-28_16-49-51.502022,17.52
2024-05-28_16-49-51.534776,18.16
2024-05-28_16-49-51.567502,16.24
2024-05-28_16-49-51.600470,16.98
2024-05-28_16-49-51.633075,22.29
2024-05-28_16-49-51.661724,15.96
2024-05-28_16-49-51.694511,16.99
2024-05-28_16-49-51.727218,17.74
2024-05-28_16-49-51.760092,16.92
2024-05-28_16-49-51.792802,16.82
2024-05-28_16-49-51.825509,16.33
2024-05-28_16-49-51.858312,15.96
2024-05-28_16-49-51.887018,16.18
2024-05-28_16-49-51.919758,17.38
2024-05-28_16-49-51.952597,15.80
2024-05-28_16-49-51.985264,14.71
2024-05-28_16-49-52.018107,15.39
2024-05-28_16-49-52.050870,20.05
2024-05-28_16-49-52.083570,5.00
2024-05-28_16-49-52.112301,10.85
2024-05-28_16-49-52.145048,6.91
2024-05-28_16-49-52.177792,8.81
2024-05-28_16-49-52.210542,9.78
2024-05-28_16-49-52.243414,11.51
2024-05-28_16-49-52.276086,7.96
2024-05-28_16-49-52.308924,10.70
2024-05-28_16-49-52.337585,9.01
2024-05-28_16-49-52.370320,8.81
2024-05-28_16-49-52.403139,10.89
2024-05-28_16-49-52.435871,9.27
2024-05-28_16-49-52.468645,7.85
2024-05-28_16-49-52.501426,8.84
2024-05-28_16-49-52.534155,8.53
2024-05-28_16-49-52.566897,14.29
2024-05-28_16-49-52.595646,17.37
2024-05-28_16-49-52.628359,16.44
2024-05-28_16-49-52.661169,16.41
2024-05-28_16-49-52.694041,18.47
2024-05-28_16-49-52.726680,17.44
2024-05-28_16-49-52.759453,16.10
2024-05-28_16-49-52.792127,17.88
2024-05-28_16-49-52.820873,13.94
2024-05-28_16-49-52.853690,17.03
2024-05-28_16-49-52.886447,15.96
2024-05-28_16-49-52.919184,12.21
2024-05-28_16-49-52.952045,13.20
2024-05-28_16-49-52.984737,17.61
2024-05-28_16-49-53.017414,10.43
2024-05-28_16-49-53.046257,14.24
2024-05-28_16-49-53.078911,15.92
2024-05-28_16-49-53.111687,10.87
2024-05-28_16-49-53.144461,11.67
2024-05-28_16-49-53.180036,16.05
2024-05-28_16-49-53.209995,15.09
2024-05-28_16-49-53.242717,16.94
2024-05-28_16-49-53.271470,11.18
2024-05-28_16-49-53.311363,24.45
2024-05-28_16-49-53.336964,18.57
2024-05-28_16-49-53.369750,26.08
2024-05-28_16-49-53.402534,21.86
2024-05-28_16-49-53.437648,18.24
2024-05-28_16-49-53.468162,16.15
2024-05-28_16-49-53.500831,16.08
2024-05-28_16-49-53.529654,16.05
2024-05-28_16-49-53.562247,15.51
2024-05-28_16-49-53.595023,19.17
2024-05-28_16-49-53.627757,21.84
2024-05-28_16-49-53.660556,15.51
2024-05-28_16-49-53.693638,18.90
2024-05-28_16-49-53.726218,17.37
2024-05-28_16-49-53.754768,13.21
2024-05-28_16-49-53.787552,14.13
2024-05-28_16-49-53.820274,18.20
2024-05-28_16-49-53.853060,12.88
2024-05-28_16-49-53.885828,17.64
2024-05-28_16-49-53.918591,17.56
2024-05-28_16-49-53.951303,19.18
2024-05-28_16-49-53.980224,19.06
2024-05-28_16-49-54.012833,14.92
2024-05-28_16-49-54.045569,15.70
2024-05-28_16-49-54.078284,14.89
2024-05-28_16-49-54.111098,0.00
2024-05-28_16-49-54.143930,43.40
2024-05-28_16-49-54.176722,67.68
2024-05-28_16-49-54.209368,82.26
2024-05-28_16-49-54.238092,55.53
2024-05-28_16-49-54.270840,61.28
2024-05-28_16-49-54.303648,82.00
2024-05-28_16-49-54.336502,72.04
2024-05-28_16-49-54.369313,82.05
2024-05-28_16-49-54.401969,76.25
2024-05-28_16-49-54.434690,83.52
2024-05-28_16-49-54.463468,72.54
2024-05-28_16-49-54.496332,71.89
2024-05-28_16-49-54.528874,81.95
2024-05-28_16-49-54.561684,68.23
2024-05-28_16-49-54.594431,63.79
2024-05-28_16-49-54.627188,71.49
2024-05-28_16-49-54.659981,73.30
2024-05-28_16-49-54.688647,74.94
2024-05-28_16-49-54.721388,68.52
2024-05-28_16-49-54.754237,66.31
2024-05-28_16-49-54.790405,47.19
2024-05-28_16-49-54.819729,40.53
2024-05-28_16-49-54.852454,36.61
2024-05-28_16-49-54.885261,39.49
2024-05-28_16-49-54.918040,33.59
2024-05-28_16-49-54.946690,34.96
2024-05-28_16-49-54.979654,32.17
2024-05-28_16-49-55.012274,38.51
2024-05-28_16-49-55.044979,30.82
2024-05-28_16-49-55.077723,26.56
2024-05-28_16-49-55.110556,27.78
2024-05-28_16-49-55.143259,25.49
2024-05-28_16-49-55.171967,27.20
2024-05-28_16-49-55.204741,22.51
2024-05-28_16-49-55.237483,24.02
2024-05-28_16-49-55.270294,23.96
2024-05-28_16-49-55.303084,27.28
2024-05-28_16-49-55.335819,22.63
2024-05-28_16-49-55.368627,22.92
2024-05-28_16-49-55.397581,22.33
2024-05-28_16-49-55.430166,23.46
2024-05-28_16-49-55.462779,24.90
2024-05-28_16-49-55.495542,20.79
2024-05-28_16-49-55.528281,20.63
2024-05-28_16-49-55.561187,20.19
2024-05-28_16-49-55.593864,21.57
2024-05-28_16-49-55.622527,23.66
2024-05-28_16-49-55.655267,21.00
2024-05-28_16-49-55.688050,21.06
2024-05-28_16-49-55.720809,20.27
2024-05-28_16-49-55.753612,24.16
2024-05-28_16-49-55.786549,21.42
2024-05-28_16-49-55.819142,20.65
2024-05-28_16-49-55.851822,20.14
2024-05-28_16-49-55.880604,21.06
2024-05-28_16-49-55.913468,23.43
2024-05-28_16-49-55.946387,20.08
2024-05-28_16-49-55.979035,20.91
2024-05-28_16-49-56.011665,21.13
2024-05-28_16-49-56.044418,24.15
2024-05-28_16-49-56.077144,22.09
2024-05-28_16-49-56.105851,23.16
2024-05-28_16-49-56.138598,23.82
2024-05-28_16-49-56.171399,21.35
2024-05-28_16-49-56.204144,26.08
2024-05-28_16-49-56.236936,23.14
2024-05-28_16-49-56.269674,28.80
2024-05-28_16-49-56.302522,29.58
2024-05-28_16-49-56.331084,32.12
2024-05-28_16-49-56.363858,29.85
2024-05-28_16-49-56.396953,29.71
2024-05-28_16-49-56.429540,29.80
2024-05-28_16-49-56.462205,30.08
2024-05-28_16-49-56.495033,35.48
2024-05-28_16-49-56.527673,27.55
2024-05-28_16-49-56.560437,29.85
2024-05-28_16-49-56.589171,28.15
2024-05-28_16-49-56.621922,31.61
2024-05-28_16-49-56.654687,28.71
2024-05-28_16-49-56.687463,28.19
2024-05-28_16-49-56.720294,27.38
2024-05-28_16-49-56.753022,28.93
2024-05-28_16-49-56.785683,34.29
2024-05-28_16-49-56.814418,29.24
2024-05-28_16-49-56.847262,28.23
2024-05-28_16-49-56.879940,28.33
2024-05-28_16-49-56.912745,26.77
2024-05-28_16-49-56.945512,30.22
2024-05-28_16-49-56.978252,26.41
2024-05-28_16-49-57.011005,24.32
2024-05-28_16-49-57.039741,27.51
2024-05-28_16-49-57.072518,29.83
2024-05-28_16-49-57.105292,30.07
2024-05-28_16-49-57.138014,27.61
2024-05-28_16-49-57.170815,28.63
2024-05-28_16-49-57.203591,26.21
2024-05-28_16-49-57.236406,31.74
2024-05-28_16-49-57.264987,26.32
2024-05-28_16-49-57.297717,25.58
2024-05-28_16-49-57.330520,25.81
2024-05-28_16-49-57.363327,32.31
2024-05-28_16-49-57.396360,27.41
2024-05-28_16-49-57.428908,28.46
2024-05-28_16-49-57.461688,24.70
2024-05-28_16-49-57.494372,27.29
2024-05-28_16-49-57.523433,31.94
2024-05-28_16-49-57.555845,29.16
2024-05-28_16-49-57.588582,24.73
2024-05-28_16-49-57.621340,24.51
2024-05-28_16-49-57.654121,26.17
2024-05-28_16-49-57.686865,32.07
2024-05-28_16-49-57.719577,24.82
2024-05-28_16-49-57.748327,25.63
2024-05-28_16-49-57.781035,23.81
2024-05-28_16-49-57.813915,29.06
2024-05-28_16-49-57.846645,26.22
2024-05-28_16-49-57.879691,27.08
2024-05-28_16-49-57.912168,26.06
2024-05-28_16-49-57.944857,25.39
2024-05-28_16-49-57.973629,26.18
2024-05-28_16-49-58.006365,24.71
2024-05-28_16-49-58.039152,27.27
2024-05-28_16-49-58.077936,26.63
2024-05-28_16-49-58.104660,27.27
2024-05-28_16-49-58.137456,23.73
2024-05-28_16-49-58.170203,26.82
2024-05-28_16-49-58.202881,24.09
2024-05-28_16-49-58.231595,25.79
2024-05-28_16-49-58.264399,28.09
2024-05-28_16-49-58.297215,23.07
2024-05-28_16-49-58.330085,26.43
2024-05-28_16-49-58.362699,25.21
2024-05-28_16-49-58.395494,27.13
2024-05-28_16-49-58.428122,25.75
2024-05-28_16-49-58.456937,25.25
2024-05-28_16-49-58.489714,24.80
2024-05-28_16-49-58.522465,25.21
2024-05-28_16-49-58.555273,28.51
2024-05-28_16-49-58.588005,25.03
2024-05-28_16-49-58.620809,26.56
2024-05-28_16-49-58.653444,25.39
2024-05-28_16-49-58.682145,26.88
2024-05-28_16-49-58.714966,26.00
2024-05-28_16-49-58.747838,25.58
2024-05-28_16-49-58.780462,25.46
2024-05-28_16-49-58.813307,25.12
2024-05-28_16-49-58.846207,33.67
2024-05-28_16-49-58.878809,28.96
2024-05-28_16-49-58.911472,27.21
2024-05-28_16-49-58.940313,26.91
2024-05-28_16-49-58.973360,29.60
2024-05-28_16-49-59.005771,31.88
2024-05-28_16-49-59.038597,28.27
2024-05-28_16-49-59.071351,28.49
2024-05-28_16-49-59.104067,26.01
2024-05-28_16-49-59.136742,24.17
2024-05-28_16-49-59.165530,22.41
2024-05-28_16-49-59.198395,20.76
2024-05-28_16-49-59.231095,21.04
2024-05-28_16-49-59.263889,19.80
2024-05-28_16-49-59.296595,22.13
2024-05-28_16-49-59.329351,19.03
2024-05-28_16-49-59.362075,18.19
2024-05-28_16-49-59.390799,18.62
2024-05-28_16-49-59.423580,20.70
2024-05-28_16-49-59.456355,19.15
2024-05-28_16-49-59.489123,18.36
2024-05-28_16-49-59.521863,18.27
2024-05-28_16-49-59.554687,19.49
2024-05-28_16-49-59.587417,21.05
2024-05-28_16-49-59.616037,17.76
2024-05-28_16-49-59.648902,16.91
2024-05-28_16-49-59.681610,17.58
2024-05-28_16-49-59.714388,18.56
2024-05-28_16-49-59.747218,19.85
2024-05-28_16-49-59.779889,17.74
2024-05-28_16-49-59.812732,17.45
2024-05-28_16-49-59.845391,17.30
2024-05-28_16-49-59.874043,20.85
2024-05-28_16-49-59.906910,19.13
2024-05-28_16-49-59.939650,17.50
2024-05-28_16-49-59.972431,17.32
2024-05-28_16-50-00.005139,18.47
2024-05-28_16-50-00.037946,19.61
2024-05-28_16-50-00.070668,17.51
2024-05-28_16-50-00.099460,17.56
2024-05-28_16-50-00.132185,17.45
2024-05-28_16-50-00.164937,20.16
2024-05-28_16-50-00.197774,18.13
2024-05-28_16-50-00.230726,18.43
2024-05-28_16-50-00.263219,18.11
2024-05-28_16-50-00.295961,17.78
2024-05-28_16-50-00.330486,19.67
2024-05-28_16-50-00.357453,16.83
2024-05-28_16-50-00.390200,16.72
2024-05-28_16-50-00.422982,17.33
2024-05-28_16-50-00.455751,18.85
2024-05-28_16-50-00.488536,18.28
2024-05-28_16-50-00.521267,17.17
2024-05-28_16-50-00.553953,18.13
2024-05-28_16-50-00.582715,18.15
2024-05-28_16-50-00.615489,21.08
2024-05-28_16-50-00.648276,15.95
2024-05-28_16-50-00.680967,17.41
2024-05-28_16-50-00.713853,15.09
2024-05-28_16-50-00.746744,15.81
2024-05-28_16-50-00.779201,16.29
2024-05-28_16-50-00.808074,16.61
2024-05-28_16-50-00.840795,23.35
2024-05-28_16-50-00.873512,20.66
2024-05-28_16-50-00.906292,24.90
2024-05-28_16-50-00.939073,24.27
2024-05-28_16-50-00.971829,30.60
2024-05-28_16-50-01.004536,34.04
2024-05-28_16-50-01.033213,34.61
2024-05-28_16-50-01.066024,41.07
2024-05-28_16-50-01.098841,39.32
2024-05-28_16-50-01.131535,38.52
2024-05-28_16-50-01.164320,34.89
2024-05-28_16-50-01.197280,37.16
2024-05-28_16-50-01.229938,37.54
2024-05-28_16-50-01.262581,30.17
2024-05-28_16-50-01.291332,35.47
2024-05-28_16-50-01.324086,28.71
2024-05-28_16-50-01.356895,31.68
2024-05-28_16-50-01.389622,26.28
2024-05-28_16-50-01.422410,28.54
2024-05-28_16-50-01.455297,24.24
2024-05-28_16-50-01.487892,29.06
2024-05-28_16-50-01.516574,25.21
2024-05-28_16-50-01.549384,25.88
2024-05-28_16-50-01.582117,25.12
2024-05-28_16-50-01.614900,26.63
2024-05-28_16-50-01.647740,27.09
2024-05-28_16-50-01.680515,25.12
2024-05-28_16-50-01.713194,22.39
2024-05-28_16-50-01.741876,24.54
2024-05-28_16-50-01.774637,24.25
2024-05-28_16-50-01.807473,25.99
2024-05-28_16-50-01.840156,25.99
2024-05-28_16-50-01.873502,24.35
2024-05-28_16-50-01.905746,21.68
2024-05-28_16-50-01.938461,29.11
2024-05-28_16-50-01.971199,25.20
2024-05-28_16-50-01.999927,20.97
2024-05-28_16-50-02.032688,22.97
2024-05-28_16-50-02.065501,24.42
2024-05-28_16-50-02.098276,27.20
2024-05-28_16-50-02.130975,23.35
2024-05-28_16-50-02.163830,22.97
2024-05-28_16-50-02.196403,24.71
2024-05-28_16-50-02.225162,27.64
2024-05-28_16-50-02.257957,22.03
2024-05-28_16-50-02.292323,24.13
2024-05-28_16-50-02.323681,23.98
2024-05-28_16-50-02.356302,24.13
2024-05-28_16-50-02.389038,25.54
2024-05-28_16-50-02.421774,23.95
2024-05-28_16-50-02.450509,22.30
2024-05-28_16-50-02.483213,22.78
2024-05-28_16-50-02.516033,25.71
2024-05-28_16-50-02.548781,27.41
2024-05-28_16-50-02.581515,23.17
2024-05-28_16-50-02.614277,23.38
2024-05-28_16-50-02.647204,23.68
2024-05-28_16-50-02.675716,27.75
2024-05-28_16-50-02.708545,23.37
2024-05-28_16-50-02.741288,24.24
2024-05-28_16-50-02.774163,23.78
2024-05-28_16-50-02.806837,24.05
2024-05-28_16-50-02.839750,23.20
2024-05-28_16-50-02.872387,21.81
2024-05-28_16-50-02.905044,22.29
2024-05-28_16-50-02.942917,22.45
2024-05-28_16-50-02.966866,26.90
2024-05-28_16-50-02.999422,27.70
2024-05-28_16-50-03.032057,24.92
2024-05-28_16-50-03.064901,24.73
2024-05-28_16-50-03.097714,23.66
2024-05-28_16-50-03.130441,24.02
2024-05-28_16-50-03.159073,24.02
2024-05-28_16-50-03.191837,24.62
2024-05-28_16-50-03.224949,25.46
2024-05-28_16-50-03.257378,25.38
2024-05-28_16-50-03.290142,22.95
2024-05-28_16-50-03.323152,18.55
2024-05-28_16-50-03.355668,23.70
2024-05-28_16-50-03.384308,23.02
2024-05-28_16-50-03.417123,24.70
2024-05-28_16-50-03.449905,21.32
2024-05-28_16-50-03.482658,22.80
2024-05-28_16-50-03.515425,21.45
2024-05-28_16-50-03.548271,23.86
2024-05-28_16-50-03.580916,21.42
2024-05-28_16-50-03.613664,21.93
2024-05-28_16-50-03.642416,20.43
2024-05-28_16-50-03.675123,21.70
2024-05-28_16-50-03.707964,24.58
2024-05-28_16-50-03.740789,20.35
2024-05-28_16-50-03.773556,19.94
2024-05-28_16-50-03.806235,19.43
2024-05-28_16-50-03.838982,20.46
2024-05-28_16-50-03.867646,22.04
2024-05-28_16-50-03.900482,19.88
2024-05-28_16-50-03.933180,18.70
2024-05-28_16-50-03.965969,19.25
2024-05-28_16-50-03.998971,21.68
2024-05-28_16-50-04.031570,20.81
2024-05-28_16-50-04.064273,19.52
2024-05-28_16-50-04.093000,19.20
2024-05-28_16-50-04.125699,19.30
2024-05-28_16-50-04.158541,21.21
2024-05-28_16-50-04.191252,18.86
2024-05-28_16-50-04.224210,18.96
2024-05-28_16-50-04.256803,19.00
2024-05-28_16-50-04.289583,21.63
2024-05-28_16-50-04.318209,18.60
2024-05-28_16-50-04.350982,18.71
2024-05-28_16-50-04.383749,17.55
2024-05-28_16-50-04.416553,18.23
2024-05-28_16-50-04.449335,19.38
2024-05-28_16-50-04.482064,16.81
2024-05-28_16-50-04.514802,16.67
2024-05-28_16-50-04.547746,16.38
2024-05-28_16-50-04.576242,17.68
2024-05-28_16-50-04.609059,17.58
2024-05-28_16-50-04.641851,15.70
2024-05-28_16-50-04.674910,16.53
2024-05-28_16-50-04.707377,12.71
2024-05-28_16-50-04.740108,17.34
2024-05-28_16-50-04.772796,14.74
2024-05-28_16-50-04.801572,13.42
2024-05-28_16-50-04.834306,12.17
2024-05-28_16-50-04.867076,13.40
2024-05-28_16-50-04.900001,13.35
2024-05-28_16-50-04.932689,11.88
2024-05-28_16-50-04.965423,12.58
2024-05-28_16-50-04.998223,12.60
2024-05-28_16-50-05.026798,15.62
2024-05-28_16-50-05.059669,12.83
2024-05-28_16-50-05.092338,14.50
2024-05-28_16-50-05.125111,14.30
2024-05-28_16-50-05.157894,13.37
2024-05-28_16-50-05.190709,12.54
2024-05-28_16-50-05.224402,11.21
2024-05-28_16-50-05.256121,11.59
2024-05-28_16-50-05.284860,11.51
2024-05-28_16-50-05.317681,11.67
2024-05-28_16-50-05.350526,11.68
2024-05-28_16-50-05.383214,12.23
2024-05-28_16-50-05.415924,14.34
2024-05-28_16-50-05.448692,14.07
2024-05-28_16-50-05.481480,16.39
2024-05-28_16-50-05.510155,13.30
2024-05-28_16-50-05.542935,12.77
2024-05-28_16-50-05.575671,13.01
2024-05-28_16-50-05.608452,14.13
2024-05-28_16-50-05.641205,13.20
2024-05-28_16-50-05.674153,14.15
2024-05-28_16-50-05.706797,12.39
2024-05-28_16-50-05.735416,14.53
2024-05-28_16-50-05.768266,17.10
2024-05-28_16-50-05.800994,14.34
2024-05-28_16-50-05.833710,14.01
2024-05-28_16-50-05.866493,13.43
2024-05-28_16-50-05.899371,12.97
2024-05-28_16-50-05.932061,15.13
2024-05-28_16-50-05.964727,12.36
2024-05-28_16-50-05.993477,13.16
2024-05-28_16-50-06.026201,13.24
2024-05-28_16-50-06.059012,15.42
2024-05-28_16-50-06.091769,14.37
2024-05-28_16-50-06.124732,13.81
2024-05-28_16-50-06.157307,15.04
2024-05-28_16-50-06.190012,13.86
2024-05-28_16-50-06.218746,15.38
2024-05-28_16-50-06.251638,12.56
2024-05-28_16-50-06.284353,12.91
2024-05-28_16-50-06.317055,12.36
2024-05-28_16-50-06.349929,15.78
2024-05-28_16-50-06.383248,13.72
2024-05-28_16-50-06.415377,14.14
2024-05-28_16-50-06.444053,13.38
2024-05-28_16-50-06.476919,14.93
2024-05-28_16-50-06.509635,16.67
2024-05-28_16-50-06.542303,14.00
2024-05-28_16-50-06.575747,13.31
2024-05-28_16-50-06.607866,13.51
2024-05-28_16-50-06.640637,13.37
2024-05-28_16-50-06.673691,14.72
2024-05-28_16-50-06.702074,13.01
2024-05-28_16-50-06.734933,13.83
2024-05-28_16-50-06.767631,12.83
2024-05-28_16-50-06.800368,15.99
2024-05-28_16-50-06.833296,14.65
2024-05-28_16-50-06.865942,14.16
2024-05-28_16-50-06.898599,14.01
2024-05-28_16-50-06.927301,12.86
2024-05-28_16-50-06.960239,14.85
2024-05-28_16-50-06.992888,12.98
2024-05-28_16-50-07.025608,12.13
2024-05-28_16-50-07.058393,13.10
2024-05-28_16-50-07.092762,15.18
2024-05-28_16-50-07.124016,12.99
2024-05-28_16-50-07.152651,14.53
2024-05-28_16-50-07.185531,14.08
2024-05-28_16-50-07.218140,16.06
2024-05-28_16-50-07.250991,15.52
2024-05-28_16-50-07.283809,12.30
2024-05-28_16-50-07.316481,13.54
2024-05-28_16-50-07.349253,13.07
2024-05-28_16-50-07.377898,10.93
2024-05-28_16-50-07.410673,15.35
2024-05-28_16-50-07.443477,12.62
2024-05-28_16-50-07.482573,16.99
2024-05-28_16-50-07.508972,18.39
2024-05-28_16-50-07.541761,20.07
2024-05-28_16-50-07.574780,20.04
2024-05-28_16-50-07.607170,19.19
2024-05-28_16-50-07.636004,18.12
2024-05-28_16-50-07.668713,20.99
2024-05-28_16-50-07.701490,22.45
2024-05-28_16-50-07.734335,22.23
2024-05-28_16-50-07.767020,23.76
2024-05-28_16-50-07.799793,17.46
2024-05-28_16-50-07.832581,26.40
2024-05-28_16-50-07.861235,27.28
2024-05-28_16-50-07.894158,27.16
2024-05-28_16-50-07.926767,28.82
2024-05-28_16-50-07.959496,26.84
2024-05-28_16-50-07.992269,19.18
2024-05-28_16-50-08.025544,21.60
2024-05-28_16-50-08.057819,25.49
2024-05-28_16-50-08.086506,25.83
2024-05-28_16-50-08.119269,23.27
2024-05-28_16-50-08.152063,22.14
2024-05-28_16-50-08.184862,19.89
2024-05-28_16-50-08.217572,16.16
2024-05-28_16-50-08.250355,19.95
2024-05-28_16-50-08.283134,24.73
2024-05-28_16-50-08.315848,20.30
2024-05-28_16-50-08.344591,18.96
2024-05-28_16-50-08.377298,14.57
2024-05-28_16-50-08.410110,20.38
2024-05-28_16-50-08.442878,19.44
2024-05-28_16-50-08.475855,18.79
2024-05-28_16-50-08.508438,14.27
2024-05-28_16-50-08.541079,19.21
2024-05-28_16-50-08.569851,21.62
2024-05-28_16-50-08.602654,18.19
2024-05-28_16-50-08.635493,20.83
2024-05-28_16-50-08.668142,13.80
2024-05-28_16-50-08.700952,17.75
2024-05-28_16-50-08.733677,14.56
2024-05-28_16-50-08.766466,24.26
2024-05-28_16-50-08.795086,16.47
2024-05-28_16-50-08.827840,18.81
2024-05-28_16-50-08.860623,19.90
2024-05-28_16-50-08.893413,19.33
2024-05-28_16-50-08.926131,13.94
2024-05-28_16-50-08.958918,15.04
2024-05-28_16-50-08.991756,17.56
2024-05-28_16-50-09.024988,18.78
2024-05-28_16-50-09.053171,14.05
2024-05-28_16-50-09.085874,14.06
2024-05-28_16-50-09.118778,16.18
2024-05-28_16-50-09.151466,16.19
2024-05-28_16-50-09.184243,14.67
2024-05-28_16-50-09.216985,12.09
2024-05-28_16-50-09.249714,14.65
2024-05-28_16-50-09.278388,8.14
2024-05-28_16-50-09.311203,8.96
2024-05-28_16-50-09.344008,9.88
2024-05-28_16-50-09.376699,11.28
2024-05-28_16-50-09.409514,12.49
2024-05-28_16-50-09.442304,17.53
2024-05-28_16-50-09.475049,20.86
2024-05-28_16-50-09.503807,14.51
2024-05-28_16-50-09.536521,12.62
2024-05-28_16-50-09.569261,9.65
2024-05-28_16-50-09.602030,11.96
2024-05-28_16-50-09.634942,11.01
2024-05-28_16-50-09.667545,10.95
2024-05-28_16-50-09.701260,17.41
2024-05-28_16-50-09.728957,29.77
2024-05-28_16-50-09.761772,53.28
2024-05-28_16-50-09.794549,52.47
2024-05-28_16-50-09.827260,57.91
2024-05-28_16-50-09.860119,63.51
2024-05-28_16-50-09.895354,57.10
2024-05-28_16-50-09.925539,63.46
2024-05-28_16-50-09.958299,63.03
2024-05-28_16-50-09.987037,85.63
2024-05-28_16-50-10.019936,81.25
2024-05-28_16-50-10.052573,82.05
2024-05-28_16-50-10.085356,90.33
2024-05-28_16-50-10.118126,56.73
2024-05-28_16-50-10.150908,39.38
2024-05-28_16-50-10.183629,27.79
2024-05-28_16-50-10.212331,24.97
2024-05-28_16-50-10.245080,21.63
2024-05-28_16-50-10.277810,19.52
2024-05-28_16-50-10.310632,17.95
2024-05-28_16-50-10.343417,21.49
2024-05-28_16-50-10.376112,23.80
2024-05-28_16-50-10.408929,22.42
2024-05-28_16-50-10.437599,23.25
2024-05-28_16-50-10.470362,19.86
2024-05-28_16-50-10.503123,20.08
2024-05-28_16-50-10.535942,15.63
2024-05-28_16-50-10.568668,16.27
2024-05-28_16-50-10.601493,13.94
2024-05-28_16-50-10.634235,15.56
2024-05-28_16-50-10.666948,12.44
2024-05-28_16-50-10.695760,12.91
2024-05-28_16-50-10.728370,13.29
2024-05-28_16-50-10.761189,12.32
2024-05-28_16-50-10.793959,13.28
2024-05-28_16-50-10.826672,10.89
2024-05-28_16-50-10.859546,9.98
2024-05-28_16-50-10.892231,10.87
2024-05-28_16-50-10.920933,14.63
2024-05-28_16-50-10.953658,8.55
2024-05-28_16-50-10.986459,10.70
2024-05-28_16-50-11.019237,9.96
2024-05-28_16-50-11.052135,4.75
2024-05-28_16-50-11.084797,11.34
2024-05-28_16-50-11.117475,10.80
2024-05-28_16-50-11.146195,10.71
2024-05-28_16-50-11.178891,10.76
2024-05-28_16-50-11.211756,10.73
2024-05-28_16-50-11.244502,7.78
2024-05-28_16-50-11.277223,4.75
2024-05-28_16-50-11.310053,4.75
2024-05-28_16-50-11.342833,7.08
2024-05-28_16-50-11.371515,8.49
2024-05-28_16-50-11.404345,9.48
2024-05-28_16-50-11.436981,11.37
2024-05-28_16-50-11.469816,11.28
2024-05-28_16-50-11.502583,12.14
2024-05-28_16-50-11.535292,10.29
2024-05-28_16-50-11.568068,8.67
2024-05-28_16-50-11.596849,0.00
2024-05-28_16-50-11.629444,5.00
2024-05-28_16-50-11.662231,0.00
2024-05-28_16-50-11.695034,0.00
2024-05-28_16-50-11.728021,0.00
2024-05-28_16-50-11.760591,0.00
2024-05-28_16-50-11.793349,0.00
2024-05-28_16-50-11.826025,5.00
2024-05-28_16-50-11.854857,0.00
2024-05-28_16-50-11.887515,0.00
2024-05-28_16-50-11.920295,0.00
2024-05-28_16-50-11.953111,0.00
2024-05-28_16-50-11.985807,0.00
2024-05-28_16-50-12.018584,0.00
2024-05-28_16-50-12.051350,0.00
2024-05-28_16-50-12.079987,0.00
2024-05-28_16-50-12.112843,0.00
2024-05-28_16-50-12.145893,0.00
2024-05-28_16-50-12.178421,0.00
2024-05-28_16-50-12.211108,0.00
2024-05-28_16-50-12.243903,0.00
2024-05-28_16-50-12.276701,0.00
2024-05-28_16-50-12.305341,0.00
2024-05-28_16-50-12.338118,0.00
2024-05-28_16-50-12.370865,0.00
2024-05-28_16-50-12.403648,0.00
2024-05-28_16-50-12.436433,0.00
2024-05-28_16-50-12.469140,0.00
2024-05-28_16-50-12.502546,0.00
2024-05-28_16-50-12.530680,0.00
2024-05-28_16-50-12.563383,0.00
2024-05-28_16-50-12.596166,0.00
2024-05-28_16-50-12.629021,0.00
2024-05-28_16-50-12.661708,0.00
2024-05-28_16-50-12.694462,4.50
2024-05-28_16-50-12.727197,10.15
2024-05-28_16-50-12.759935,15.04
2024-05-28_16-50-12.788657,6.50
2024-05-28_16-50-12.821389,9.01
2024-05-28_16-50-12.854198,12.52
2024-05-28_16-50-12.886991,13.38
2024-05-28_16-50-12.919749,11.92
2024-05-28_16-50-12.952498,5.75
2024-05-28_16-50-12.985277,11.00
2024-05-28_16-50-13.013967,6.91
2024-05-28_16-50-13.046751,7.50
2024-05-28_16-50-13.079486,9.20
2024-05-28_16-50-13.112290,10.33
2024-05-28_16-50-13.145032,4.75
2024-05-28_16-50-13.177734,7.46
2024-05-28_16-50-13.210578,11.57
2024-05-28_16-50-13.239206,6.50
2024-05-28_16-50-13.271988,8.31
2024-05-28_16-50-13.304785,4.75
2024-05-28_16-50-13.337543,7.46
2024-05-28_16-50-13.370279,10.00
2024-05-28_16-50-13.403085,7.65
2024-05-28_16-50-13.435935,5.00
2024-05-28_16-50-13.464567,0.00
2024-05-28_16-50-13.497392,4.50
2024-05-28_16-50-13.530019,6.72
2024-05-28_16-50-13.562803,7.07
2024-05-28_16-50-13.595531,0.00
2024-05-28_16-50-13.628275,4.75
2024-05-28_16-50-13.661130,5.75
2024-05-28_16-50-13.693878,13.16
2024-05-28_16-50-13.722557,9.25
2024-05-28_16-50-13.755351,10.13
2024-05-28_16-50-13.788112,0.00
2024-05-28_16-50-13.820818,9.86
2024-05-28_16-50-13.853594,13.83
2024-05-28_16-50-13.886493,5.50
2024-05-28_16-50-13.919146,10.31
2024-05-28_16-50-13.947868,8.33
2024-05-28_16-50-13.980549,6.00
2024-05-28_16-50-14.013359,6.90
2024-05-28_16-50-14.046094,6.50
2024-05-28_16-50-14.078894,7.25
2024-05-28_16-50-14.111634,0.00
2024-05-28_16-50-14.144405,0.00
2024-05-28_16-50-14.173057,0.00
2024-05-28_16-50-14.205928,7.75
2024-05-28_16-50-14.238603,0.00
2024-05-28_16-50-14.271394,7.00
2024-05-28_16-50-14.304160,6.75
2024-05-28_16-50-14.337156,0.00
2024-05-28_16-50-14.369677,0.00
2024-05-28_16-50-14.398525,0.00
2024-05-28_16-50-14.431103,5.25
2024-05-28_16-50-14.463941,0.00
2024-05-28_16-50-14.496869,0.00
2024-05-28_16-50-14.529417,4.50
2024-05-28_16-50-14.562233,0.00
2024-05-28_16-50-14.595001,0.00
2024-05-28_16-50-14.623628,6.36
2024-05-28_16-50-14.656478,0.00
2024-05-28_16-50-14.689197,0.00
2024-05-28_16-50-14.722071,0.00
2024-05-28_16-50-14.754717,0.00
2024-05-28_16-50-14.787518,0.00
2024-05-28_16-50-14.820241,0.00
2024-05-28_16-50-14.852963,4.50
2024-05-28_16-50-14.881788,4.75
2024-05-28_16-50-14.914447,0.00
2024-05-28_16-50-14.947305,4.75
2024-05-28_16-50-14.980040,0.00
2024-05-28_16-50-15.012796,4.50
2024-05-28_16-50-15.050047,0.00
2024-05-28_16-50-15.078873,0.00
2024-05-28_16-50-15.107113,0.00
2024-05-28_16-50-15.139788,4.75
2024-05-28_16-50-15.172586,0.00
2024-05-28_16-50-15.205813,4.50
2024-05-28_16-50-15.238074,7.62
2024-05-28_16-50-15.270854,0.00
2024-05-28_16-50-15.303577,6.00
2024-05-28_16-50-15.332248,5.25
2024-05-28_16-50-15.365028,8.20
2024-05-28_16-50-15.397793,0.00
2024-05-28_16-50-15.430713,10.76
2024-05-28_16-50-15.463357,0.00
2024-05-28_16-50-15.496175,0.00
2024-05-28_16-50-15.528833,4.75
2024-05-28_16-50-15.557596,0.00
2024-05-28_16-50-15.590292,0.00
2024-05-28_16-50-15.623039,0.00
2024-05-28_16-50-15.655861,0.00
2024-05-28_16-50-15.688594,0.00
2024-05-28_16-50-15.721306,0.00
2024-05-28_16-50-15.754185,4.75
2024-05-28_16-50-15.782774,0.00
2024-05-28_16-50-15.815649,0.00
2024-05-28_16-50-15.848377,4.50
2024-05-28_16-50-15.881079,0.00
2024-05-28_16-50-15.913934,5.25
2024-05-28_16-50-15.946917,0.00
2024-05-28_16-50-15.979370,4.75
2024-05-28_16-50-16.012193,4.50
2024-05-28_16-50-16.040890,5.25
2024-05-28_16-50-16.075041,0.00
2024-05-28_16-50-16.106412,0.00
2024-05-28_16-50-16.139182,4.50
2024-05-28_16-50-16.172008,0.00
2024-05-28_16-50-16.204723,0.00
2024-05-28_16-50-16.237367,0.00
2024-05-28_16-50-16.266121,4.75
2024-05-28_16-50-16.299002,0.00
2024-05-28_16-50-16.331734,0.00
2024-05-28_16-50-16.364425,0.00
2024-05-28_16-50-16.397233,0.00
2024-05-28_16-50-16.430036,0.00
2024-05-28_16-50-16.462699,0.00
2024-05-28_16-50-16.491417,0.00
2024-05-28_16-50-16.524254,0.00
2024-05-28_16-50-16.557484,0.00
2024-05-28_16-50-16.589728,4.75
2024-05-28_16-50-16.622494,0.00
2024-05-28_16-50-16.655321,0.00
2024-05-28_16-50-16.688017,0.00
2024-05-28_16-50-16.716698,0.00
2024-05-28_16-50-16.750622,4.50
2024-05-28_16-50-16.782251,0.00
2024-05-28_16-50-16.815056,0.00
2024-05-28_16-50-16.847747,0.00
2024-05-28_16-50-16.880473,0.00
2024-05-28_16-50-16.913298,0.00
2024-05-28_16-50-16.942048,0.00
2024-05-28_16-50-16.974697,0.00
2024-05-28_16-50-17.007534,0.00
2024-05-28_16-50-17.040279,0.00
2024-05-28_16-50-17.073048,0.00
2024-05-28_16-50-17.105846,0.00
2024-05-28_16-50-17.138620,0.00
2024-05-28_16-50-17.171294,0.00
2024-05-28_16-50-17.200090,0.00
2024-05-28_16-50-17.232737,0.00
2024-05-28_16-50-17.265575,0.00
2024-05-28_16-50-17.298316,0.00
2024-05-28_16-50-17.331036,0.00
2024-05-28_16-50-17.363867,0.00
2024-05-28_16-50-17.396592,0.00
2024-05-28_16-50-17.425567,0.00
2024-05-28_16-50-17.458063,0.00
2024-05-28_16-50-17.490830,0.00
2024-05-28_16-50-17.523773,0.00
2024-05-28_16-50-17.556405,0.00
2024-05-28_16-50-17.589231,0.00
2024-05-28_16-50-17.621809,0.00
2024-05-28_16-50-17.650723,0.00
2024-05-28_16-50-17.683312,0.00
2024-05-28_16-50-17.716080,0.00
2024-05-28_16-50-17.748992,0.00
2024-05-28_16-50-17.781728,0.00
2024-05-28_16-50-17.814401,0.00
2024-05-28_16-50-17.847067,0.00
2024-05-28_16-50-17.876057,0.00
2024-05-28_16-50-17.908654,0.00
2024-05-28_16-50-17.941395,0.00
2024-05-28_16-50-17.974773,0.00
2024-05-28_16-50-18.006945,0.00
2024-05-28_16-50-18.039679,0.00
2024-05-28_16-50-18.072471,0.00
2024-05-28_16-50-18.101113,0.00
2024-05-28_16-50-18.133845,0.00
2024-05-28_16-50-18.166659,0.00
2024-05-28_16-50-18.199668,0.00
2024-05-28_16-50-18.232152,0.00
2024-05-28_16-50-18.264955,0.00
2024-05-28_16-50-18.297767,0.00
2024-05-28_16-50-18.326447,0.00
2024-05-28_16-50-18.359231,0.00
2024-05-28_16-50-18.391974,0.00
2024-05-28_16-50-18.426803,0.00
2024-05-28_16-50-18.457515,0.00
2024-05-28_16-50-18.490264,0.00
2024-05-28_16-50-18.523022,0.00
2024-05-28_16-50-18.555701,0.00
2024-05-28_16-50-18.584408,0.00
2024-05-28_16-50-18.617212,0.00
2024-05-28_16-50-18.650068,0.00
2024-05-28_16-50-18.682716,0.00
2024-05-28_16-50-18.715577,0.00
2024-05-28_16-50-18.748338,0.00
2024-05-28_16-50-18.781073,0.00
2024-05-28_16-50-18.809733,0.00
2024-05-28_16-50-18.842490,0.00
2024-05-28_16-50-18.875757,0.00
2024-05-28_16-50-18.908066,0.00
2024-05-28_16-50-18.940797,0.00
2024-05-28_16-50-18.974293,0.00
2024-05-28_16-50-19.006295,0.00
2024-05-28_16-50-19.034999,0.00
2024-05-28_16-50-19.067845,0.00
2024-05-28_16-50-19.100629,0.00
2024-05-28_16-50-19.133274,0.00
2024-05-28_16-50-19.166146,0.00
2024-05-28_16-50-19.198898,0.00
2024-05-28_16-50-19.231713,0.00
2024-05-28_16-50-19.260283,0.00
2024-05-28_16-50-19.293078,0.00
2024-05-28_16-50-19.325834,0.00
2024-05-28_16-50-19.358552,0.00
2024-05-28_16-50-19.391381,0.00
2024-05-28_16-50-19.424322,0.00
2024-05-28_16-50-19.456876,0.00
2024-05-28_16-50-19.485574,0.00
2024-05-28_16-50-19.518324,0.00
2024-05-28_16-50-19.551213,0.00
2024-05-28_16-50-19.583881,0.00
2024-05-28_16-50-19.616637,0.00
2024-05-28_16-50-19.649509,0.00
2024-05-28_16-50-19.682333,0.00
2024-05-28_16-50-19.714850,0.00
2024-05-28_16-50-19.743647,0.00
2024-05-28_16-50-19.776329,0.00
2024-05-28_16-50-19.809141,0.00
2024-05-28_16-50-19.841924,0.00
2024-05-28_16-50-19.878187,0.00
2024-05-28_16-50-19.907478,0.00
2024-05-28_16-50-19.940151,0.00
2024-05-28_16-50-19.975239,0.00
2024-05-28_16-50-20.001707,0.00
2024-05-28_16-50-20.034407,0.00
2024-05-28_16-50-20.067205,8.05
2024-05-28_16-50-20.100101,0.00
2024-05-28_16-50-20.132684,8.11
2024-05-28_16-50-20.165461,8.33
2024-05-28_16-50-20.194187,7.81
2024-05-28_16-50-20.226904,15.48
2024-05-28_16-50-20.259709,9.02
2024-05-28_16-50-20.292471,6.54
2024-05-28_16-50-20.325753,5.25
2024-05-28_16-50-20.358064,10.64
2024-05-28_16-50-20.390782,4.75
2024-05-28_16-50-20.419462,8.46
2024-05-28_16-50-20.452184,0.00
2024-05-28_16-50-20.484990,0.00
2024-05-28_16-50-20.517899,4.50
2024-05-28_16-50-20.550565,9.71
2024-05-28_16-50-20.583255,0.00
2024-05-28_16-50-20.616066,10.51
2024-05-28_16-50-20.648860,4.75
2024-05-28_16-50-20.677534,0.00
2024-05-28_16-50-20.710232,11.13
2024-05-28_16-50-20.743369,4.50
2024-05-28_16-50-20.775823,0.00
2024-05-28_16-50-20.808610,5.00
2024-05-28_16-50-20.841347,6.25
2024-05-28_16-50-20.874020,0.00
2024-05-28_16-50-20.902753,0.00
2024-05-28_16-50-20.935560,6.25
2024-05-28_16-50-20.968307,0.00
2024-05-28_16-50-21.001182,0.00
2024-05-28_16-50-21.033823,4.50
2024-05-28_16-50-21.066614,5.50
2024-05-28_16-50-21.099286,0.00
2024-05-28_16-50-21.127997,6.72
2024-05-28_16-50-21.160794,7.00
2024-05-28_16-50-21.193619,0.00
2024-05-28_16-50-21.226310,7.00
2024-05-28_16-50-21.259222,6.00
2024-05-28_16-50-21.291909,4.50
2024-05-28_16-50-21.325140,5.25
2024-05-28_16-50-21.353361,0.00
2024-05-28_16-50-21.386056,0.00
2024-05-28_16-50-21.418861,0.00
2024-05-28_16-50-21.451714,0.00
2024-05-28_16-50-21.484348,0.00
2024-05-28_16-50-21.517252,0.00
2024-05-28_16-50-21.550088,4.75
2024-05-28_16-50-21.578620,0.00
2024-05-28_16-50-21.611395,0.00
2024-05-28_16-50-21.644165,0.00
2024-05-28_16-50-21.676873,4.50
