timestamp,EMG
2024-05-28_13-34-26.751827,"95.80,71.82"
2024-05-28_13-34-26.784573,"74.39,74.22"
2024-05-28_13-34-26.817326,"92.85,66.61"
2024-05-28_13-34-26.846015,"66.47,38.67"
2024-05-28_13-34-26.878723,"76.83,72.91"
2024-05-28_13-34-26.911495,"59.74,65.59"
2024-05-28_13-34-26.944316,"46.94,68.88"
2024-05-28_13-34-26.977137,"61.39,75.64"
2024-05-28_13-34-27.009901,"67.57,69.91"
2024-05-28_13-34-27.042552,"50.49,74.56"
2024-05-28_13-34-27.071509,"91.17,70.28"
2024-05-28_13-34-27.104057,"76.91,79.55"
2024-05-28_13-34-27.137011,"83.32,60.78"
2024-05-28_13-34-27.169684,"80.29,42.18"
2024-05-28_13-34-27.202334,"76.03,68.46"
2024-05-28_13-34-27.235146,"57.95,64.71"
2024-05-28_13-34-27.267879,"55.65,74.56"
2024-05-28_13-34-27.300658,"53.05,71.98"
2024-05-28_13-34-27.329277,"63.45,68.45"
2024-05-28_13-34-27.362104,"65.91,86.16"
2024-05-28_13-34-27.394884,"98.83,46.31"
2024-05-28_13-34-27.427624,"63.13,80.16"
2024-05-28_13-34-27.460412,"84.44,41.57"
2024-05-28_13-34-27.493174,"83.04,45.74"
2024-05-28_13-34-27.525883,"81.31,55.49"
2024-05-28_13-34-27.554637,"53.92,74.59"
2024-05-28_13-34-27.587522,"55.19,66.21"
2024-05-28_13-34-27.620231,"53.77,70.88"
2024-05-28_13-34-27.652958,"72.76,70.40"
2024-05-28_13-34-27.685687,"50.16,84.89"
2024-05-28_13-34-27.718441,"83.88,72.67"
2024-05-28_13-34-27.751112,"62.89,68.46"
2024-05-28_13-34-27.779926,"81.84,59.45"
2024-05-28_13-34-27.813359,"86.96,51.72"
2024-05-28_13-34-27.845641,"77.54,57.07"
2024-05-28_13-34-27.878272,"51.48,72.95"
2024-05-28_13-34-27.910950,"57.47,64.78"
2024-05-28_13-34-27.943714,"53.53,71.79"
2024-05-28_13-34-27.976398,"76.50,68.31"
2024-05-28_13-34-28.005187,"49.02,80.55"
2024-05-28_13-34-28.038030,"82.71,77.85"
2024-05-28_13-34-28.072749,"67.37,71.64"
2024-05-28_13-34-28.103519,"84.45,73.56"
2024-05-28_13-34-28.136409,"89.52,46.02"
2024-05-28_13-34-28.168982,"59.21,41.92"
2024-05-28_13-34-28.201834,"51.34,72.90"
2024-05-28_13-34-28.230408,"60.85,65.23"
2024-05-28_13-34-28.263243,"48.96,70.27"
2024-05-28_13-34-28.296121,"66.16,78.08"
2024-05-28_13-34-28.328756,"49.81,71.10"
2024-05-28_13-34-28.373096,"97.28,83.21"
2024-05-28_13-34-28.394378,"71.39,61.60"
2024-05-28_13-34-28.426899,"88.99,61.64"
2024-05-28_13-34-28.458082,"81.27,40.48"
2024-05-28_13-34-28.488502,"59.85,56.77"
2024-05-28_13-34-28.521371,"50.28,72.80"
2024-05-28_13-34-28.554157,"58.74,65.06"
2024-05-28_13-34-28.586951,"55.81,76.37"
2024-05-28_13-34-28.619645,"61.98,72.53"
2024-05-28_13-34-28.652287,"54.01,71.20"
2024-05-28_13-34-28.680968,"77.05,90.37"
2024-05-28_13-34-28.713857,"87.29,63.26"
2024-05-28_13-34-28.746564,"75.50,62.08"
2024-05-28_13-34-28.779264,"90.43,42.18"
2024-05-28_13-34-28.812161,"58.62,69.15"
2024-05-28_13-34-28.844854,"57.56,55.91"
2024-05-28_13-34-28.877463,"57.36,75.27"
2024-05-28_13-34-28.906461,"58.66,66.29"
2024-05-28_13-34-28.943150,"52.38,72.47"
2024-05-28_13-34-28.972214,"67.14,69.68"
2024-05-28_13-34-29.004695,"52.45,81.58"
2024-05-28_13-34-29.037523,"93.64,71.76"
2024-05-28_13-34-29.070185,"67.68,67.85"
2024-05-28_13-34-29.102881,"84.67,38.56"
2024-05-28_13-34-29.131624,"92.00,45.46"
2024-05-28_13-34-29.164349,"70.41,69.12"
2024-05-28_13-34-29.197138,"51.72,71.73"
2024-05-28_13-34-29.229875,"57.96,65.04"
2024-05-28_13-34-29.262676,"54.69,71.78"
2024-05-28_13-34-29.295422,"68.11,69.40"
2024-05-28_13-34-29.328063,"51.46,88.51"
2024-05-28_13-34-29.356873,"85.83,64.93"
2024-05-28_13-34-29.389870,"62.59,74.73"
2024-05-28_13-34-29.422529,"92.03,59.08"
2024-05-28_13-34-29.455172,"79.76,60.38"
2024-05-28_13-34-29.488025,"65.33,50.89"
2024-05-28_13-34-29.522036,"51.78,71.01"
2024-05-28_13-34-29.553537,"61.48,65.64"
2024-05-28_13-34-29.582360,"65.10,70.62"
2024-05-28_13-34-29.614977,"59.70,78.19"
2024-05-28_13-34-29.647665,"52.15,80.98"
2024-05-28_13-34-29.680398,"85.93,80.14"
2024-05-28_13-34-29.713240,"73.30,69.28"
2024-05-28_13-34-29.745987,"95.80,61.07"
2024-05-28_13-34-29.778667,"78.00,59.45"
2024-05-28_13-34-29.807412,"52.52,45.52"
2024-05-28_13-34-29.840231,"50.74,70.85"
2024-05-28_13-34-29.872926,"62.07,65.68"
2024-05-28_13-34-29.905706,"68.08,77.54"
2024-05-28_13-34-29.938589,"55.67,73.06"
2024-05-28_13-34-29.986126,"52.72,69.65"
2024-05-28_13-34-30.004160,"88.41,77.53"
2024-05-28_13-34-30.032754,"77.90,70.71"
2024-05-28_13-34-30.065494,"87.02,76.76"
2024-05-28_13-34-30.098249,"80.59,66.21"
2024-05-28_13-34-30.131024,"63.12,46.08"
2024-05-28_13-34-30.163839,"41.77,70.43"
2024-05-28_13-34-30.196576,"60.79,76.01"
2024-05-28_13-34-30.229255,"71.13,66.87"
2024-05-28_13-34-30.261930,"59.94,72.30"
2024-05-28_13-34-30.290904,"55.45,69.04"
2024-05-28_13-34-30.324206,"83.17,85.81"
2024-05-28_13-34-30.356333,"78.19,75.75"
2024-05-28_13-34-30.389104,"73.76,65.44"
2024-05-28_13-34-30.421941,"64.29,60.81"
2024-05-28_13-34-30.454511,"66.30,46.58"
2024-05-28_13-34-30.487376,"53.75,75.43"
2024-05-28_13-34-30.516114,"52.06,71.61"
2024-05-28_13-34-30.548992,"73.25,66.79"
2024-05-28_13-34-30.581575,"59.09,72.36"
2024-05-28_13-34-30.614364,"51.55,70.23"
2024-05-28_13-34-30.647173,"88.74,85.17"
2024-05-28_13-34-30.679793,"76.35,75.92"
2024-05-28_13-34-30.712511,"91.83,46.83"
2024-05-28_13-34-30.741339,"73.98,58.34"
2024-05-28_13-34-30.774100,"68.19,61.55"
2024-05-28_13-34-30.806890,"52.57,65.22"
2024-05-28_13-34-30.839666,"54.27,70.77"
2024-05-28_13-34-30.872677,"74.87,66.60"
2024-05-28_13-34-30.905111,"57.42,72.75"
2024-05-28_13-34-30.937799,"51.29,80.94"
2024-05-28_13-34-30.966599,"81.23,75.89"
2024-05-28_13-34-30.999377,"73.52,75.39"
2024-05-28_13-34-31.032163,"91.97,66.22"
2024-05-28_13-34-31.064940,"69.16,38.44"
2024-05-28_13-34-31.097740,"78.95,69.88"
2024-05-28_13-34-31.130348,"50.69,64.58"
2024-05-28_13-34-31.163092,"52.65,70.37"
2024-05-28_13-34-31.191951,"62.24,66.82"
2024-05-28_13-34-31.224636,"67.78,78.70"
2024-05-28_13-34-31.257431,"50.43,74.43"
2024-05-28_13-34-31.290195,"77.29,75.96"
2024-05-28_13-34-31.322888,"75.65,75.60"
2024-05-28_13-34-31.355805,"88.12,67.02"
2024-05-28_13-34-31.390391,"84.99,62.31"
2024-05-28_13-34-31.417289,"48.59,77.32"
2024-05-28_13-34-31.449961,"59.80,65.49"
2024-05-28_13-34-31.482728,"46.88,68.95"
2024-05-28_13-34-31.515566,"60.78,76.52"
2024-05-28_13-34-31.548302,"73.81,69.70"
2024-05-28_13-34-31.580993,"49.69,73.42"
2024-05-28_13-34-31.613671,"75.21,73.14"
2024-05-28_13-34-31.642471,"75.74,81.98"
2024-05-28_13-34-31.675201,"80.69,60.98"
2024-05-28_13-34-31.708000,"86.37,43.46"
2024-05-28_13-34-31.740754,"72.47,37.62"
2024-05-28_13-34-31.773516,"51.81,65.01"
2024-05-28_13-34-31.806244,"55.21,75.24"
2024-05-28_13-34-31.838944,"54.38,71.79"
2024-05-28_13-34-31.867727,"65.88,67.06"
2024-05-28_13-34-31.900519,"55.02,73.53"
2024-05-28_13-34-31.933362,"69.32,74.84"
2024-05-28_13-34-31.966395,"77.15,76.01"
2024-05-28_13-34-31.998820,"79.08,76.11"
2024-05-28_13-34-32.031610,"78.22,46.77"
2024-05-28_13-34-32.064231,"66.59,47.60"
2024-05-28_13-34-32.093034,"68.10,76.26"
2024-05-28_13-34-32.125808,"57.15,66.53"
2024-05-28_13-34-32.158594,"54.21,70.49"
2024-05-28_13-34-32.191373,"68.74,67.47"
2024-05-28_13-34-32.224366,"51.64,71.64"
2024-05-28_13-34-32.256915,"69.67,87.85"
2024-05-28_13-34-32.291140,"78.99,63.86"
2024-05-28_13-34-32.318324,"77.98,75.25"
2024-05-28_13-34-32.351138,"101.54,47.77"
2024-05-28_13-34-32.383850,"65.63,57.10"
2024-05-28_13-34-32.416615,"58.53,60.96"
2024-05-28_13-34-32.449381,"56.55,67.82"
2024-05-28_13-34-32.482080,"53.49,70.74"
2024-05-28_13-34-32.514863,"74.26,66.06"
2024-05-28_13-34-32.543683,"58.18,79.36"
2024-05-28_13-34-32.576521,"51.76,75.26"
2024-05-28_13-34-32.609130,"85.31,71.41"
2024-05-28_13-34-32.641902,"74.25,74.37"
2024-05-28_13-34-32.674653,"89.62,47.62"
2024-05-28_13-34-32.707457,"78.03,39.89"
2024-05-28_13-34-32.740086,"76.25,61.92"
2024-05-28_13-34-32.768841,"53.22,64.26"
2024-05-28_13-34-32.801634,"45.67,68.98"
2024-05-28_13-34-32.834404,"61.99,76.03"
2024-05-28_13-34-32.867205,"66.17,70.67"
2024-05-28_13-34-32.899965,"50.78,73.27"
2024-05-28_13-34-32.932838,"89.11,70.86"
2024-05-28_13-34-32.965492,"76.39,78.48"
2024-05-28_13-34-32.994098,"84.26,61.30"
2024-05-28_13-34-33.027037,"68.22,42.55"
2024-05-28_13-34-33.059709,"62.96,58.10"
2024-05-28_13-34-33.092837,"56.04,64.24"
2024-05-28_13-34-33.125597,"57.69,75.23"
2024-05-28_13-34-33.157994,"51.46,73.18"
2024-05-28_13-34-33.190900,"63.72,68.74"
2024-05-28_13-34-33.240217,"57.52,79.25"
2024-05-28_13-34-33.252628,"101.93,64.80"
2024-05-28_13-34-33.285036,"64.69,77.35"
2024-05-28_13-34-33.317811,"86.39,42.23"
2024-05-28_13-34-33.350511,"73.80,45.06"
2024-05-28_13-34-33.383306,"69.15,47.97"
2024-05-28_13-34-33.416066,"54.54,74.21"
2024-05-28_13-34-33.444762,"55.57,67.11"
2024-05-28_13-34-33.477503,"53.66,74.46"
2024-05-28_13-34-33.510312,"72.69,69.19"
2024-05-28_13-34-33.543038,"50.73,82.56"
2024-05-28_13-34-33.575755,"82.92,72.24"
2024-05-28_13-34-33.608586,"64.39,67.37"
2024-05-28_13-34-33.641285,"84.04,59.73"
2024-05-28_13-34-33.670047,"89.09,56.79"
2024-05-28_13-34-33.702840,"67.02,50.52"
2024-05-28_13-34-33.735546,"51.34,71.85"
2024-05-28_13-34-33.768317,"57.02,65.75"
2024-05-28_13-34-33.801120,"55.14,71.27"
2024-05-28_13-34-33.833893,"71.12,67.97"
2024-05-28_13-34-33.866600,"50.52,80.21"
2024-05-28_13-34-33.899258,"87.50,81.24"
2024-05-28_13-34-33.928012,"67.36,69.84"
2024-05-28_13-34-33.960819,"87.32,57.27"
2024-05-28_13-34-33.993618,"78.92,56.32"
2024-05-28_13-34-34.026355,"59.75,56.68"
2024-05-28_13-34-34.059140,"51.37,72.18"
2024-05-28_13-34-34.093463,"61.69,66.11"
2024-05-28_13-34-34.149160,"64.94,69.63"
2024-05-28_13-34-34.155482,"61.88,79.22"
2024-05-28_13-34-34.187209,"50.26,70.84"
2024-05-28_13-34-34.226269,"88.45,78.09"
2024-05-28_13-34-34.251641,"71.63,70.66"
2024-05-28_13-34-34.284432,"94.61,41.49"
2024-05-28_13-34-34.317213,"79.36,59.51"
2024-05-28_13-34-34.349882,"64.51,44.49"
2024-05-28_13-34-34.378562,"51.11,71.70"
2024-05-28_13-34-34.411434,"61.15,65.63"
2024-05-28_13-34-34.444165,"69.99,76.19"
2024-05-28_13-34-34.476945,"70.14,66.98"
2024-05-28_13-34-34.510067,"52.22,69.37"
2024-05-28_13-34-34.542424,"85.58,79.49"
2024-05-28_13-34-34.576020,"79.33,70.62"
2024-05-28_13-34-34.603923,"89.37,61.75"
2024-05-28_13-34-34.637227,"78.19,58.77"
2024-05-28_13-34-34.669433,"60.48,47.39"
2024-05-28_13-34-34.702226,"46.36,70.17"
2024-05-28_13-34-34.735082,"61.12,75.04"
2024-05-28_13-34-34.767689,"70.53,68.69"
2024-05-28_13-34-34.800379,"58.49,73.49"
2024-05-28_13-34-34.830384,"57.07,81.13"
2024-05-28_13-34-34.862005,"83.21,85.08"
2024-05-28_13-34-34.896031,"79.91,75.53"
2024-05-28_13-34-34.927507,"89.24,44.38"
2024-05-28_13-34-34.960251,"77.06,57.76"
2024-05-28_13-34-34.993036,"72.14,48.17"
2024-05-28_13-34-35.025732,"53.06,75.60"
2024-05-28_13-34-35.054488,"52.58,70.81"
2024-05-28_13-34-35.087308,"73.59,67.29"
2024-05-28_13-34-35.120010,"60.00,72.40"
2024-05-28_13-34-35.152726,"52.31,68.87"
2024-05-28_13-34-35.185531,"84.86,86.24"
2024-05-28_13-34-35.218335,"77.04,61.07"
2024-05-28_13-34-35.250972,"93.04,46.80"
2024-05-28_13-34-35.279770,"72.41,54.83"
2024-05-28_13-34-35.312554,"69.45,61.91"
2024-05-28_13-34-35.345353,"54.03,64.95"
2024-05-28_13-34-35.378096,"54.07,70.51"
2024-05-28_13-34-35.416755,"63.78,67.30"
2024-05-28_13-34-35.444395,"58.96,71.07"
2024-05-28_13-34-35.476250,"63.21,85.56"
2024-05-28_13-34-35.505123,"88.59,63.43"
2024-05-28_13-34-35.537814,"75.80,76.15"
2024-05-28_13-34-35.570678,"92.40,48.61"
2024-05-28_13-34-35.603308,"54.30,39.15"
2024-05-28_13-34-35.636101,"64.08,60.36"
2024-05-28_13-34-35.668804,"53.34,64.26"
2024-05-28_13-34-35.701560,"54.22,70.50"
2024-05-28_13-34-35.730358,"59.25,66.82"
2024-05-28_13-34-35.763103,"58.42,78.48"
2024-05-28_13-34-35.795816,"51.76,74.85"
2024-05-28_13-34-35.828669,"85.74,70.78"
2024-05-28_13-34-35.861528,"77.16,73.59"
2024-05-28_13-34-35.894102,"94.57,66.61"
2024-05-28_13-34-35.927019,"67.10,65.60"
2024-05-28_13-34-35.955696,"65.93,60.06"
2024-05-28_13-34-35.988564,"58.48,65.12"
2024-05-28_13-34-36.021245,"47.19,70.04"
2024-05-28_13-34-36.053897,"72.76,76.23"
2024-05-28_13-34-36.086646,"56.71,70.53"
2024-05-28_13-34-36.119477,"51.77,73.21"
2024-05-28_13-34-36.152160,"104.47,70.92"
2024-05-28_13-34-36.180927,"84.42,77.02"
2024-05-28_13-34-36.213678,"88.14,40.46"
2024-05-28_13-34-36.246527,"63.89,60.23"
2024-05-28_13-34-36.279214,"71.16,58.01"
2024-05-28_13-34-36.312026,"56.97,65.22"
2024-05-28_13-34-36.345442,"57.55,75.60"
2024-05-28_13-34-36.377409,"67.45,72.40"
2024-05-28_13-34-36.406215,"56.91,68.95"
2024-05-28_13-34-36.438944,"59.40,83.12"
2024-05-28_13-34-36.471738,"97.36,65.85"
2024-05-28_13-34-36.504825,"69.95,66.62"
2024-05-28_13-34-36.537207,"55.86,74.14"
2024-05-28_13-34-36.569998,"66.78,72.04"
2024-05-28_13-34-36.602762,"63.57,56.01"
2024-05-28_13-34-36.635493,"57.88,74.69"
2024-05-28_13-34-36.664241,"58.80,67.67"
2024-05-28_13-34-36.696945,"66.13,71.50"
2024-05-28_13-34-36.729747,"60.43,70.73"
2024-05-28_13-34-36.762545,"66.21,82.94"
2024-05-28_13-34-36.795817,"83.73,77.60"
2024-05-28_13-34-36.827969,"74.69,46.33"
2024-05-28_13-34-36.860686,"89.18,39.24"
2024-05-28_13-34-36.889508,"82.90,64.31"
2024-05-28_13-34-36.922524,"52.52,62.36"
2024-05-28_13-34-36.955244,"52.74,71.62"
2024-05-28_13-34-36.988133,"58.15,65.49"
2024-05-28_13-34-37.020570,"67.24,72.93"
2024-05-28_13-34-37.053284,"58.35,69.79"
2024-05-28_13-34-37.085981,"79.27,83.52"
2024-05-28_13-34-37.114818,"76.48,77.94"
2024-05-28_13-34-37.147507,"77.88,66.84"
2024-05-28_13-34-37.180322,"92.12,34.89"
2024-05-28_13-34-37.213142,"68.09,59.05"
2024-05-28_13-34-37.246008,"53.28,64.69"
2024-05-28_13-34-37.278590,"52.04,70.85"
2024-05-28_13-34-37.311290,"62.46,65.48"
2024-05-28_13-34-37.340061,"61.49,71.25"
2024-05-28_13-34-37.372848,"55.55,79.26"
2024-05-28_13-34-37.405647,"51.88,76.35"
2024-05-28_13-34-37.438387,"93.12,71.24"
2024-05-28_13-34-37.471272,"75.55,68.60"
2024-05-28_13-34-37.503969,"83.94,77.89"
2024-05-28_13-34-37.536521,"59.71,67.12"
2024-05-28_13-34-37.565321,"66.48,65.41"
2024-05-28_13-34-37.598647,"52.14,70.05"
2024-05-28_13-34-37.630892,"61.64,65.99"
2024-05-28_13-34-37.663696,"66.33,77.53"
2024-05-28_13-34-37.696399,"52.44,73.26"
2024-05-28_13-34-37.730976,"55.60,75.91"
2024-05-28_13-34-37.762063,"92.07,68.38"
2024-05-28_13-34-37.790603,"79.32,68.71"
2024-05-28_13-34-37.823395,"91.98,41.38"
2024-05-28_13-34-37.856156,"75.52,64.21"
2024-05-28_13-34-37.888895,"62.35,48.09"
2024-05-28_13-34-37.921713,"43.96,69.57"
2024-05-28_13-34-37.954399,"62.00,75.97"
2024-05-28_13-34-37.987159,"64.74,68.13"
2024-05-28_13-34-38.015907,"52.43,72.60"
2024-05-28_13-34-38.048789,"59.30,75.97"
2024-05-28_13-34-38.081464,"89.49,74.50"
2024-05-28_13-34-38.114450,"78.65,76.02"
2024-05-28_13-34-38.147011,"73.49,44.22"
2024-05-28_13-34-38.179699,"71.72,37.32"
2024-05-28_13-34-38.212416,"52.32,64.84"
2024-05-28_13-34-38.241173,"57.16,76.07"
2024-05-28_13-34-38.273983,"53.36,70.94"
2024-05-28_13-34-38.306765,"62.64,66.81"
2024-05-28_13-34-38.339473,"54.67,73.13"
2024-05-28_13-34-38.372295,"82.80,73.11"
2024-05-28_13-34-38.405093,"63.76,78.36"
2024-05-28_13-34-38.437682,"80.74,76.36"
2024-05-28_13-34-38.466497,"82.40,46.84"
2024-05-28_13-34-38.499191,"66.13,72.50"
2024-05-28_13-34-38.532035,"53.75,76.99"
2024-05-28_13-34-38.564806,"58.28,66.62"
2024-05-28_13-34-38.597572,"54.29,71.97"
2024-05-28_13-34-38.630300,"76.55,68.17"
2024-05-28_13-34-38.662972,"49.34,72.15"
2024-05-28_13-34-38.691699,"88.59,86.53"
2024-05-28_13-34-38.724497,"63.55,69.85"
2024-05-28_13-34-38.757267,"84.53,60.53"
2024-05-28_13-34-38.790055,"85.83,51.78"
2024-05-28_13-34-38.822835,"76.40,56.11"
2024-05-28_13-34-38.855683,"51.48,72.42"
2024-05-28_13-34-38.888294,"55.15,65.13"
2024-05-28_13-34-38.917058,"53.09,70.65"
2024-05-28_13-34-38.949766,"73.53,67.57"
2024-05-28_13-34-38.982682,"49.06,80.36"
2024-05-28_13-34-39.015322,"93.44,78.51"
2024-05-28_13-34-39.048502,"67.90,70.97"
2024-05-28_13-34-39.080906,"85.18,57.24"
2024-05-28_13-34-39.113583,"77.56,55.89"
2024-05-28_13-34-39.146372,"60.00,56.39"
2024-05-28_13-34-39.175089,"49.93,71.88"
2024-05-28_13-34-39.207935,"60.05,66.02"
2024-05-28_13-34-39.240623,"65.91,69.71"
2024-05-28_13-34-39.273422,"63.31,78.56"
2024-05-28_13-34-39.306133,"50.11,71.69"
2024-05-28_13-34-39.338826,"82.46,76.80"
2024-05-28_13-34-39.371554,"70.14,70.96"
2024-05-28_13-34-39.400417,"90.25,76.12"
2024-05-28_13-34-39.433152,"66.96,66.58"
2024-05-28_13-34-39.465951,"59.44,44.04"
2024-05-28_13-34-39.498627,"51.49,71.62"
2024-05-28_13-34-39.531447,"61.96,68.22"
2024-05-28_13-34-39.564154,"69.14,78.13"
2024-05-28_13-34-39.596820,"59.03,74.62"
2024-05-28_13-34-39.625683,"52.38,69.79"
2024-05-28_13-34-39.658412,"88.79,76.94"
2024-05-28_13-34-39.691148,"78.36,70.89"
2024-05-28_13-34-39.723908,"87.43,62.00"
2024-05-28_13-34-39.756825,"80.00,60.79"
2024-05-28_13-34-39.789450,"69.79,46.94"
2024-05-28_13-34-39.822227,"45.22,70.31"
2024-05-28_13-34-39.850906,"60.60,75.13"
2024-05-28_13-34-39.883699,"70.94,68.71"
2024-05-28_13-34-39.916458,"60.42,73.20"
2024-05-28_13-34-39.954175,"56.47,69.35"
2024-05-28_13-34-39.981965,"85.42,84.63"
2024-05-28_13-34-40.014734,"79.64,75.95"
2024-05-28_13-34-40.047468,"88.61,44.39"
2024-05-28_13-34-40.076233,"77.53,56.84"
2024-05-28_13-34-40.108969,"59.56,48.38"
2024-05-28_13-34-40.141749,"52.21,75.68"
2024-05-28_13-34-40.174646,"52.82,71.39"
2024-05-28_13-34-40.207277,"71.36,67.16"
2024-05-28_13-34-40.239986,"61.09,72.85"
2024-05-28_13-34-40.272738,"52.27,69.17"
2024-05-28_13-34-40.301458,"85.96,87.49"
2024-05-28_13-34-40.334264,"75.54,76.06"
2024-05-28_13-34-40.367057,"89.92,47.27"
2024-05-28_13-34-40.399756,"58.41,62.12"
2024-05-28_13-34-40.432575,"66.56,61.92"
2024-05-28_13-34-40.465257,"53.28,64.83"
2024-05-28_13-34-40.497999,"52.81,72.18"
2024-05-28_13-34-40.526793,"96.20,70.44"
2024-05-28_13-34-40.559586,"55.58,72.01"
2024-05-28_13-34-40.592316,"51.97,80.83"
2024-05-28_13-34-40.625140,"94.02,73.23"
2024-05-28_13-34-40.657901,"73.82,74.92"
2024-05-28_13-34-40.690584,"91.70,48.21"
2024-05-28_13-34-40.723647,"53.61,38.67"
2024-05-28_13-34-40.752238,"65.73,71.90"
2024-05-28_13-34-40.784939,"51.53,64.44"
2024-05-28_13-34-40.817584,"55.04,71.13"
2024-05-28_13-34-40.851723,"61.34,65.71"
2024-05-28_13-34-40.883435,"63.40,78.52"
2024-05-28_13-34-40.915865,"51.89,75.55"
2024-05-28_13-34-40.948741,"84.25,74.20"
2024-05-28_13-34-40.977682,"75.93,74.08"
2024-05-28_13-34-41.010114,"92.84,66.77"
2024-05-28_13-34-41.042985,"66.91,38.46"
2024-05-28_13-34-41.075690,"79.51,69.23"
2024-05-28_13-34-41.108456,"58.23,65.50"
2024-05-28_13-34-41.141243,"47.33,68.88"
2024-05-28_13-34-41.173926,"62.21,75.81"
2024-05-28_13-34-41.202629,"64.83,70.19"
2024-05-28_13-34-41.235422,"50.45,74.65"
2024-05-28_13-34-41.268152,"89.98,69.23"
2024-05-28_13-34-41.300951,"77.52,79.06"
2024-05-28_13-34-41.333834,"84.46,40.35"
2024-05-28_13-34-41.366528,"80.49,42.20"
2024-05-28_13-34-41.399219,"75.29,67.50"
2024-05-28_13-34-41.427930,"56.48,65.02"
2024-05-28_13-34-41.460664,"55.21,74.83"
2024-05-28_13-34-41.493430,"52.20,72.17"
2024-05-28_13-34-41.526266,"89.98,70.47"
2024-05-28_13-34-41.559003,"69.57,68.60"
2024-05-28_13-34-41.591773,"82.64,71.95"
2024-05-28_13-34-41.624506,"62.21,80.83"
2024-05-28_13-34-41.653349,"83.90,41.58"
2024-05-28_13-34-41.685978,"81.98,45.91"
2024-05-28_13-34-41.718825,"81.22,55.13"
2024-05-28_13-34-41.751491,"52.54,74.67"
2024-05-28_13-34-41.784311,"55.31,66.16"
2024-05-28_13-34-41.817100,"54.00,70.87"
2024-05-28_13-34-41.850453,"73.37,70.18"
2024-05-28_13-34-41.882437,"49.58,72.77"
2024-05-28_13-34-41.911279,"89.75,84.80"
2024-05-28_13-34-41.944033,"63.61,70.29"
2024-05-28_13-34-41.976787,"80.43,59.39"
2024-05-28_13-34-42.009572,"86.55,52.57"
2024-05-28_13-34-42.048652,"76.75,55.53"
2024-05-28_13-34-42.075107,"51.53,72.85"
2024-05-28_13-34-42.108284,"58.13,64.88"
2024-05-28_13-34-42.136528,"53.93,71.95"
2024-05-28_13-34-42.169301,"71.73,68.69"
2024-05-28_13-34-42.202007,"51.30,86.44"
2024-05-28_13-34-42.234866,"96.09,68.75"
2024-05-28_13-34-42.267603,"68.92,67.97"
2024-05-28_13-34-42.300352,"91.04,35.21"
2024-05-28_13-34-42.332979,"67.18,55.66"
2024-05-28_13-34-42.361830,"68.49,65.25"
2024-05-28_13-34-42.396675,"52.16,71.42"
2024-05-28_13-34-42.427330,"62.12,65.58"
2024-05-28_13-34-42.460154,"63.69,71.43"
2024-05-28_13-34-42.492896,"60.10,78.86"
2024-05-28_13-34-42.525638,"50.65,79.83"
2024-05-28_13-34-42.558530,"82.81,72.30"
2024-05-28_13-34-42.587133,"75.22,75.05"
2024-05-28_13-34-42.619853,"94.47,61.08"
2024-05-28_13-34-42.652555,"79.27,58.87"
2024-05-28_13-34-42.685413,"67.57,45.72"
2024-05-28_13-34-42.718165,"51.76,71.13"
2024-05-28_13-34-42.750869,"60.65,65.88"
2024-05-28_13-34-42.783642,"68.80,77.07"
2024-05-28_13-34-42.812382,"57.17,73.03"
2024-05-28_13-34-42.845780,"53.91,71.90"
2024-05-28_13-34-42.877910,"85.86,66.57"
2024-05-28_13-34-42.910720,"77.56,70.05"
2024-05-28_13-34-42.943445,"85.32,61.33"
2024-05-28_13-34-42.976142,"67.21,66.97"
2024-05-28_13-34-43.008849,"66.93,46.32"
2024-05-28_13-34-43.037640,"42.84,70.01"
2024-05-28_13-34-43.070431,"60.91,76.06"
2024-05-28_13-34-43.103278,"70.26,67.59"
2024-05-28_13-34-43.135943,"55.79,73.21"
2024-05-28_13-34-43.168784,"57.97,70.39"
2024-05-28_13-34-43.201452,"82.37,85.57"
2024-05-28_13-34-43.234185,"77.73,75.83"
2024-05-28_13-34-43.262948,"91.70,44.67"
2024-05-28_13-34-43.295835,"78.49,57.66"
2024-05-28_13-34-43.328471,"70.42,46.57"
2024-05-28_13-34-43.361300,"53.99,76.68"
2024-05-28_13-34-43.394034,"52.14,70.75"
2024-05-28_13-34-43.426778,"71.28,65.98"
2024-05-28_13-34-43.459476,"61.19,72.57"
2024-05-28_13-34-43.488577,"52.67,69.83"
2024-05-28_13-34-43.521042,"87.99,84.14"
2024-05-28_13-34-43.553691,"67.65,74.43"
2024-05-28_13-34-43.586543,"73.79,69.71"
2024-05-28_13-34-43.619317,"60.25,35.81"
2024-05-28_13-34-43.652051,"64.41,62.95"
2024-05-28_13-34-43.684788,"55.53,65.86"
2024-05-28_13-34-43.717435,"52.46,70.14"
2024-05-28_13-34-43.749813,"61.88,66.54"
2024-05-28_13-34-43.779297,"60.35,71.98"
2024-05-28_13-34-43.811815,"50.88,80.28"
2024-05-28_13-34-43.845445,"84.25,68.25"
2024-05-28_13-34-43.877376,"73.30,76.84"
2024-05-28_13-34-43.910061,"88.79,48.05"
2024-05-28_13-34-43.942729,"82.69,38.77"
2024-05-28_13-34-43.971707,"66.06,76.09"
2024-05-28_13-34-44.004270,"52.26,63.79"
2024-05-28_13-34-44.037167,"51.74,70.13"
2024-05-28_13-34-44.069880,"62.19,66.27"
2024-05-28_13-34-44.102641,"65.59,79.12"
2024-05-28_13-34-44.135316,"50.41,74.03"
2024-05-28_13-34-44.181548,"75.46,73.95"
2024-05-28_13-34-44.197018,"73.88,75.40"
2024-05-28_13-34-44.229703,"87.13,66.32"
2024-05-28_13-34-44.262514,"76.31,40.72"
2024-05-28_13-34-44.295232,"85.46,58.91"
2024-05-28_13-34-44.327983,"52.70,65.00"
2024-05-28_13-34-44.365832,"46.40,69.09"
2024-05-28_13-34-44.394560,"61.20,76.18"
2024-05-28_13-34-44.422479,"62.33,68.21"
2024-05-28_13-34-44.455001,"49.74,73.02"
2024-05-28_13-34-44.487795,"58.42,73.91"
2024-05-28_13-34-44.520683,"76.53,74.93"
2024-05-28_13-34-44.553202,"79.74,76.04"
2024-05-28_13-34-44.586049,"79.82,65.13"
2024-05-28_13-34-44.618579,"56.50,78.23"
2024-05-28_13-34-44.648336,"61.63,65.92"
2024-05-28_13-34-44.680252,"53.47,75.11"
2024-05-28_13-34-44.712997,"52.25,72.09"
2024-05-28_13-34-44.745986,"69.76,67.06"
2024-05-28_13-34-44.778454,"57.76,72.57"
2024-05-28_13-34-44.811154,"52.04,70.27"
2024-05-28_13-34-44.843862,"89.01,85.84"
2024-05-28_13-34-44.872744,"76.28,75.99"
2024-05-28_13-34-44.905559,"89.08,46.96"
2024-05-28_13-34-44.938215,"74.66,34.35"
2024-05-28_13-34-44.971599,"74.65,53.65"
2024-05-28_13-34-45.004110,"50.49,64.22"
2024-05-28_13-34-45.036465,"52.01,70.93"
2024-05-28_13-34-45.069272,"63.11,66.18"
2024-05-28_13-34-45.097958,"70.91,72.10"
2024-05-28_13-34-45.130747,"52.06,79.86"
2024-05-28_13-34-45.164434,"77.43,74.38"
2024-05-28_13-34-45.196267,"76.26,76.84"
2024-05-28_13-34-45.229036,"82.75,67.21"
2024-05-28_13-34-45.261736,"90.84,39.67"
2024-05-28_13-34-45.294431,"73.52,41.37"
2024-05-28_13-34-45.323264,"46.43,64.59"
2024-05-28_13-34-45.356022,"52.18,70.39"
2024-05-28_13-34-45.388986,"62.30,66.20"
2024-05-28_13-34-45.421684,"67.12,77.64"
2024-05-28_13-34-45.454402,"52.39,73.71"
2024-05-28_13-34-45.487020,"54.69,78.52"
2024-05-28_13-34-45.519763,"82.98,68.32"
2024-05-28_13-34-45.548799,"78.41,70.38"
2024-05-28_13-34-45.581320,"89.02,60.92"
2024-05-28_13-34-45.614104,"48.07,78.02"
2024-05-28_13-34-45.646827,"73.69,51.97"
2024-05-28_13-34-45.695036,"44.97,69.21"
2024-05-28_13-34-45.719063,"60.38,75.28"
2024-05-28_13-34-45.745140,"73.09,68.27"
2024-05-28_13-34-45.773912,"60.19,72.20"
2024-05-28_13-34-45.806612,"55.82,71.38"
2024-05-28_13-34-45.839377,"78.72,80.46"
2024-05-28_13-34-45.872104,"77.46,76.09"
2024-05-28_13-34-45.904926,"80.24,45.83"
2024-05-28_13-34-45.937741,"66.94,38.39"
2024-05-28_13-34-45.970315,"67.27,68.36"
2024-05-28_13-34-45.999042,"62.83,63.11"
2024-05-28_13-34-46.031857,"52.76,71.58"
2024-05-28_13-34-46.064756,"58.72,65.22"
2024-05-28_13-34-46.097520,"68.15,71.95"
2024-05-28_13-34-46.130221,"58.69,69.95"
2024-05-28_13-34-46.163011,"77.50,82.84"
2024-05-28_13-34-46.195847,"75.84,78.22"
2024-05-28_13-34-46.224373,"79.07,66.92"
2024-05-28_13-34-46.257108,"93.35,34.66"
2024-05-28_13-34-46.289939,"68.41,45.16"
2024-05-28_13-34-46.322940,"54.13,64.61"
2024-05-28_13-34-46.355950,"51.95,70.67"
2024-05-28_13-34-46.388270,"61.77,65.34"
2024-05-28_13-34-46.420964,"64.52,69.99"
2024-05-28_13-34-46.449665,"61.57,78.67"
2024-05-28_13-34-46.482465,"50.88,70.26"
2024-05-28_13-34-46.515390,"86.07,67.20"
2024-05-28_13-34-46.547958,"71.32,72.03"
2024-05-28_13-34-46.580722,"92.18,41.01"
2024-05-28_13-34-46.613506,"61.49,61.34"
2024-05-28_13-34-46.646352,"51.21,67.17"
2024-05-28_13-34-46.674939,"51.54,70.82"
2024-05-28_13-34-46.707687,"60.36,64.84"
2024-05-28_13-34-46.740504,"58.51,75.80"
2024-05-28_13-34-46.773262,"64.50,73.79"
2024-05-28_13-34-46.806066,"55.92,69.24"
2024-05-28_13-34-46.838810,"58.45,80.83"
2024-05-28_13-34-46.871421,"90.09,66.95"
2024-05-28_13-34-46.900246,"69.49,77.44"
2024-05-28_13-34-46.933036,"89.27,62.25"
2024-05-28_13-34-46.965900,"73.92,44.88"
2024-05-28_13-34-46.998667,"55.62,56.42"
2024-05-28_13-34-47.031292,"57.92,74.56"
2024-05-28_13-34-47.064125,"57.57,67.04"
2024-05-28_13-34-47.115404,"51.99,70.78"
2024-05-28_13-34-47.126364,"72.50,68.57"
2024-05-28_13-34-47.159029,"49.73,74.93"
2024-05-28_13-34-47.197032,"89.72,83.39"
2024-05-28_13-34-47.223871,"64.22,71.00"
2024-05-28_13-34-47.256683,"80.38,59.52"
2024-05-28_13-34-47.289850,"95.94,46.06"
2024-05-28_13-34-47.322119,"59.15,40.10"
2024-05-28_13-34-47.350762,"50.50,73.31"
2024-05-28_13-34-47.383591,"56.14,65.16"
2024-05-28_13-34-47.416311,"54.40,70.64"
2024-05-28_13-34-47.449137,"70.57,67.88"
2024-05-28_13-34-47.481858,"52.34,79.87"
2024-05-28_13-34-47.514690,"69.73,81.00"
2024-05-28_13-34-47.551995,"81.88,63.69"
2024-05-28_13-34-47.583059,"83.36,73.48"
2024-05-28_13-34-47.608986,"98.26,47.11"
2024-05-28_13-34-47.641622,"60.49,65.94"
2024-05-28_13-34-47.674370,"50.51,78.24"
2024-05-28_13-34-47.707154,"60.87,65.40"
2024-05-28_13-34-47.739931,"48.22,69.40"
2024-05-28_13-34-47.772870,"75.35,77.78"
2024-05-28_13-34-47.805476,"59.72,70.49"
2024-05-28_13-34-47.834193,"51.64,73.72"
2024-05-28_13-34-47.867012,"88.65,71.46"
2024-05-28_13-34-47.899624,"75.49,78.46"
2024-05-28_13-34-47.932436,"84.49,61.15"
2024-05-28_13-34-47.965304,"77.67,42.18"
2024-05-28_13-34-47.998005,"87.68,57.47"
2024-05-28_13-34-48.030601,"54.62,64.45"
2024-05-28_13-34-48.059436,"55.27,75.40"
2024-05-28_13-34-48.092217,"54.49,71.65"
2024-05-28_13-34-48.125025,"65.84,66.77"
2024-05-28_13-34-48.157831,"56.27,74.09"
2024-05-28_13-34-48.190461,"69.71,73.89"
2024-05-28_13-34-48.223202,"75.94,76.56"
2024-05-28_13-34-48.256301,"78.42,61.41"
2024-05-28_13-34-48.287314,"89.01,47.37"
2024-05-28_13-34-48.317483,"68.98,56.35"
2024-05-28_13-34-48.350295,"59.00,62.09"
2024-05-28_13-34-48.382993,"54.99,66.11"
2024-05-28_13-34-48.415808,"52.65,70.18"
2024-05-28_13-34-48.448521,"74.81,66.62"
2024-05-28_13-34-48.481221,"58.33,72.14"
2024-05-28_13-34-48.509924,"52.82,81.58"
2024-05-28_13-34-48.542773,"93.86,71.56"
2024-05-28_13-34-48.575522,"73.61,75.22"
2024-05-28_13-34-48.608277,"91.95,48.10"
2024-05-28_13-34-48.641093,"69.88,38.26"
2024-05-28_13-34-48.673730,"64.88,70.43"
2024-05-28_13-34-48.706506,"54.29,67.26"
2024-05-28_13-34-48.735225,"52.27,70.60"
2024-05-28_13-34-48.768038,"61.85,65.62"
2024-05-28_13-34-48.800796,"71.97,78.52"
2024-05-28_13-34-48.833578,"49.51,73.83"
2024-05-28_13-34-48.866356,"83.13,72.42"
2024-05-28_13-34-48.899101,"74.89,78.30"
2024-05-28_13-34-48.931797,"85.03,66.90"
2024-05-28_13-34-48.960529,"86.06,40.67"
2024-05-28_13-34-48.993295,"73.92,54.76"
2024-05-28_13-34-49.026105,"65.35,66.03"
2024-05-28_13-34-49.058833,"44.11,69.40"
2024-05-28_13-34-49.091610,"62.99,75.96"
2024-05-28_13-34-49.124350,"68.34,67.58"
2024-05-28_13-34-49.157136,"54.29,72.47"
2024-05-28_13-34-49.185807,"56.98,71.19"
2024-05-28_13-34-49.218585,"86.67,84.25"
2024-05-28_13-34-49.251280,"78.35,75.72"
2024-05-28_13-34-49.284116,"90.05,64.17"
2024-05-28_13-34-49.316925,"66.95,37.62"
2024-05-28_13-34-49.349628,"65.16,45.96"
2024-05-28_13-34-49.382362,"51.76,76.67"
2024-05-28_13-34-49.411097,"50.92,71.08"
2024-05-28_13-34-49.443853,"57.44,65.51"
2024-05-28_13-34-49.476647,"65.04,71.99"
2024-05-28_13-34-49.509429,"55.13,70.59"
2024-05-28_13-34-49.542199,"88.58,91.30"
2024-05-28_13-34-49.574990,"74.52,77.98"
2024-05-28_13-34-49.607771,"82.17,66.28"
2024-05-28_13-34-49.640359,"83.37,34.61"
2024-05-28_13-34-49.669170,"51.55,78.27"
2024-05-28_13-34-49.701897,"53.00,65.56"
2024-05-28_13-34-49.738192,"51.44,70.52"
2024-05-28_13-34-49.767541,"61.76,65.86"
2024-05-28_13-34-49.800242,"62.78,70.17"
2024-05-28_13-34-49.832995,"58.78,79.82"
2024-05-28_13-34-49.865610,"50.38,83.79"
2024-05-28_13-34-49.894576,"89.49,77.58"
2024-05-28_13-34-49.927209,"72.02,70.81"
2024-05-28_13-34-49.959983,"89.25,61.03"
2024-05-28_13-34-49.992727,"80.40,40.76"
2024-05-28_13-34-50.033402,"60.95,54.20"
2024-05-28_13-34-50.079808,"62.52,58.78"
2024-05-28_13-34-50.097570,"60.16,64.66"
2024-05-28_13-34-50.123310,"56.83,76.92"
2024-05-28_13-34-50.152553,"67.97,72.79"
2024-05-28_13-34-50.185336,"56.99,69.04"
2024-05-28_13-34-50.218161,"58.71,81.42"
2024-05-28_13-34-50.251040,"101.30,62.99"
2024-05-28_13-34-50.283540,"65.77,78.06"
2024-05-28_13-34-50.316362,"85.64,41.42"
2024-05-28_13-34-50.345155,"85.31,45.95"
2024-05-28_13-34-50.377765,"81.08,56.36"
2024-05-28_13-34-50.410646,"55.17,74.73"
2024-05-28_13-34-50.443307,"57.48,66.84"
2024-05-28_13-34-50.476148,"53.53,70.76"
2024-05-28_13-34-50.508947,"66.84,67.50"
2024-05-28_13-34-50.541519,"49.47,73.07"
2024-05-28_13-34-50.570326,"69.19,84.92"
2024-05-28_13-34-50.603006,"76.94,65.43"
2024-05-28_13-34-50.635883,"79.33,75.38"
2024-05-28_13-34-50.668937,"98.63,47.40"
2024-05-28_13-34-50.701394,"40.80,78.21"
2024-05-28_13-34-50.734130,"64.79,60.70"
2024-05-28_13-34-50.766832,"55.64,65.29"
2024-05-28_13-34-50.796294,"53.55,70.02"
2024-05-28_13-34-50.828372,"61.60,66.96"
2024-05-28_13-34-50.861151,"68.11,78.61"
2024-05-28_13-34-50.893853,"50.28,74.25"
2024-05-28_13-34-50.926664,"80.47,85.25"
2024-05-28_13-34-50.959509,"73.04,77.58"
2024-05-28_13-34-50.992190,"82.20,67.16"
2024-05-28_13-34-51.020823,"94.56,40.64"
2024-05-28_13-34-51.053599,"74.26,51.72"
2024-05-28_13-34-51.086379,"62.30,48.27"
