timestamp,EMG
2024-05-28_13-31-29.258027,"57.64,61.36"
2024-05-28_13-31-29.290499,"57.51,65.16"
2024-05-28_13-31-29.323129,"55.13,76.98"
2024-05-28_13-31-29.355807,"60.64,73.70"
2024-05-28_13-31-29.388521,"50.83,69.80"
2024-05-28_13-31-29.417273,"78.59,78.72"
2024-05-28_13-31-29.450058,"82.26,66.20"
2024-05-28_13-31-29.482824,"73.25,77.20"
2024-05-28_13-31-29.515602,"86.84,41.67"
2024-05-28_13-31-29.548379,"73.76,45.84"
2024-05-28_13-31-29.581115,"66.49,56.31"
2024-05-28_13-31-29.613791,"54.82,74.90"
2024-05-28_13-31-29.642523,"57.74,67.05"
2024-05-28_13-31-29.675336,"53.12,70.59"
2024-05-28_13-31-29.708106,"78.97,68.20"
2024-05-28_13-31-29.740880,"86.34,65.23"
2024-05-28_13-31-29.773628,"52.40,87.13"
2024-05-28_13-31-29.806355,"79.47,64.80"
2024-05-28_13-31-29.839060,"75.20,75.34"
2024-05-28_13-31-29.868294,"90.84,48.64"
2024-05-28_13-31-29.900588,"81.83,38.89"
2024-05-28_13-31-29.933440,"85.62,67.27"
2024-05-28_13-31-29.966162,"51.22,64.94"
2024-05-28_13-31-29.998933,"51.38,70.18"
2024-05-28_13-31-30.031709,"60.47,65.17"
2024-05-28_13-31-30.064407,"66.32,77.37"
2024-05-28_13-31-30.093132,"55.52,74.84"
2024-05-28_13-31-30.125871,"52.39,68.92"
2024-05-28_13-31-30.158652,"87.11,78.32"
2024-05-28_13-31-30.191411,"77.21,71.89"
2024-05-28_13-31-30.224240,"78.35,62.18"
2024-05-28_13-31-30.256937,"80.39,42.31"
2024-05-28_13-31-30.289684,"68.80,64.58"
2024-05-28_13-31-30.318399,"64.80,56.18"
2024-05-28_13-31-30.351167,"58.97,74.55"
2024-05-28_13-31-30.383965,"56.65,67.45"
2024-05-28_13-31-30.416685,"51.82,71.07"
2024-05-28_13-31-30.449491,"70.64,68.76"
2024-05-28_13-31-30.482271,"49.25,86.79"
2024-05-28_13-31-30.515437,"89.62,83.29"
2024-05-28_13-31-30.544305,"61.28,70.15"
2024-05-28_13-31-30.576546,"77.39,59.95"
2024-05-28_13-31-30.609262,"100.20,46.39"
2024-05-28_13-31-30.642004,"65.38,57.03"
2024-05-28_13-31-30.674754,"69.20,60.16"
2024-05-28_13-31-30.707500,"54.80,64.53"
2024-05-28_13-31-30.740297,"50.85,73.87"
2024-05-28_13-31-30.768968,"60.67,67.07"
2024-05-28_13-31-30.801726,"65.60,79.15"
2024-05-28_13-31-30.834508,"50.16,74.61"
2024-05-28_13-31-30.867275,"88.32,70.64"
2024-05-28_13-31-30.900123,"72.31,76.27"
2024-05-28_13-31-30.932864,"82.38,67.29"
2024-05-28_13-31-30.965777,"92.73,40.36"
2024-05-28_13-31-30.994408,"74.81,66.75"
2024-05-28_13-31-31.027026,"58.80,48.33"
2024-05-28_13-31-31.059781,"44.88,69.72"
2024-05-28_13-31-31.092574,"60.41,75.72"
2024-05-28_13-31-31.125329,"57.07,68.13"
2024-05-28_13-31-31.158098,"63.63,72.05"
2024-05-28_13-31-31.190823,"57.52,71.48"
2024-05-28_13-31-31.223538,"79.88,90.65"
2024-05-28_13-31-31.252380,"83.74,78.04"
2024-05-28_13-31-31.285153,"68.83,47.41"
2024-05-28_13-31-31.317991,"85.85,40.21"
2024-05-28_13-31-31.350696,"89.12,58.79"
2024-05-28_13-31-31.383451,"76.73,48.92"
2024-05-28_13-31-31.416068,"52.60,73.03"
2024-05-28_13-31-31.448791,"56.78,64.71"
2024-05-28_13-31-31.477582,"53.82,71.62"
2024-05-28_13-31-31.510377,"70.80,67.73"
2024-05-28_13-31-31.543396,"52.53,79.46"
2024-05-28_13-31-31.594021,"51.85,73.66"
2024-05-28_13-31-31.613804,"92.94,77.94"
2024-05-28_13-31-31.675541,"72.43,74.43"
2024-05-28_13-31-31.677409,"86.81,48.62"
2024-05-28_13-31-31.703347,"75.53,40.68"
2024-05-28_13-31-31.735804,"52.02,75.85"
2024-05-28_13-31-31.768474,"59.64,67.37"
2024-05-28_13-31-31.801198,"46.17,69.89"
2024-05-28_13-31-31.833924,"63.10,76.07"
2024-05-28_13-31-31.866754,"66.83,67.71"
2024-05-28_13-31-31.899368,"57.13,73.13"
2024-05-28_13-31-31.928262,"56.40,70.41"
2024-05-28_13-31-31.960910,"78.02,83.67"
2024-05-28_13-31-31.993680,"75.33,76.43"
2024-05-28_13-31-32.026443,"77.88,46.55"
2024-05-28_13-31-32.059214,"89.00,38.53"
2024-05-28_13-31-32.091991,"80.59,62.12"
2024-05-28_13-31-32.124698,"53.59,63.29"
2024-05-28_13-31-32.153445,"51.95,70.84"
2024-05-28_13-31-32.186407,"58.25,65.28"
2024-05-28_13-31-32.219108,"56.43,71.74"
2024-05-28_13-31-32.251788,"71.82,68.84"
2024-05-28_13-31-32.284604,"49.60,91.13"
2024-05-28_13-31-32.317366,"89.42,79.17"
2024-05-28_13-31-32.350157,"67.31,71.28"
2024-05-28_13-31-32.378761,"79.61,58.28"
2024-05-28_13-31-32.411493,"97.87,48.12"
2024-05-28_13-31-32.444211,"78.64,57.90"
2024-05-28_13-31-32.477005,"67.06,60.08"
2024-05-28_13-31-32.509798,"58.10,65.18"
2024-05-28_13-31-32.542531,"46.03,70.24"
2024-05-28_13-31-32.575256,"59.23,75.75"
2024-05-28_13-31-32.604018,"69.69,69.17"
2024-05-28_13-31-32.636745,"48.63,74.94"
2024-05-28_13-31-32.669544,"58.85,73.86"
2024-05-28_13-31-32.702283,"86.96,79.98"
2024-05-28_13-31-32.735063,"76.47,60.91"
2024-05-28_13-31-32.767846,"75.67,64.47"
2024-05-28_13-31-32.800527,"77.21,81.39"
2024-05-28_13-31-32.829253,"63.25,47.25"
2024-05-28_13-31-32.862049,"68.86,76.82"
2024-05-28_13-31-32.894808,"53.03,71.02"
2024-05-28_13-31-32.927568,"58.93,65.31"
2024-05-28_13-31-32.960408,"69.32,73.25"
2024-05-28_13-31-32.993143,"65.67,69.21"
2024-05-28_13-31-33.025824,"50.61,86.08"
2024-05-28_13-31-33.054605,"85.52,68.50"
2024-05-28_13-31-33.087504,"65.37,70.78"
2024-05-28_13-31-33.120171,"81.41,57.77"
2024-05-28_13-31-33.153182,"97.35,46.35"
2024-05-28_13-31-33.185700,"61.31,64.57"
2024-05-28_13-31-33.218454,"72.80,59.57"
2024-05-28_13-31-33.251135,"57.88,65.43"
2024-05-28_13-31-33.279865,"47.86,70.04"
2024-05-28_13-31-33.312648,"60.57,76.12"
2024-05-28_13-31-33.345376,"63.78,70.77"
2024-05-28_13-31-33.378159,"50.51,74.45"
2024-05-28_13-31-33.410933,"93.60,79.44"
2024-05-28_13-31-33.443674,"73.22,80.17"
2024-05-28_13-31-33.476446,"80.26,61.53"
2024-05-28_13-31-33.505176,"93.86,43.55"
2024-05-28_13-31-33.538029,"76.08,59.44"
2024-05-28_13-31-33.570705,"72.53,48.08"
2024-05-28_13-31-33.604511,"52.47,75.88"
2024-05-28_13-31-33.636364,"52.19,72.24"
2024-05-28_13-31-33.668983,"58.66,66.66"
2024-05-28_13-31-33.701693,"64.43,72.04"
2024-05-28_13-31-33.734345,"53.90,69.85"
2024-05-28_13-31-33.763266,"79.77,83.19"
2024-05-28_13-31-33.795947,"46.94,80.29"
2024-05-28_13-31-33.828755,"78.39,71.80"
2024-05-28_13-31-33.861713,"90.65,58.17"
2024-05-28_13-31-33.894284,"80.32,55.80"
2024-05-28_13-31-33.926994,"76.06,51.68"
2024-05-28_13-31-33.959740,"51.45,72.40"
2024-05-28_13-31-33.988522,"61.22,66.44"
2024-05-28_13-31-34.021337,"48.34,69.40"
2024-05-28_13-31-34.054014,"72.77,76.55"
2024-05-28_13-31-34.086845,"60.79,70.86"
2024-05-28_13-31-34.119621,"51.72,73.93"
2024-05-28_13-31-34.152306,"87.69,70.62"
2024-05-28_13-31-34.184979,"71.80,79.73"
2024-05-28_13-31-34.213734,"80.90,41.53"
2024-05-28_13-31-34.246879,"84.94,43.91"
2024-05-28_13-31-34.279353,"73.26,52.75"
2024-05-28_13-31-34.312789,"61.11,48.26"
2024-05-28_13-31-34.345510,"54.40,75.62"
2024-05-28_13-31-34.377645,"54.72,71.63"
2024-05-28_13-31-34.410254,"57.87,66.38"
2024-05-28_13-31-34.439090,"64.16,72.03"
2024-05-28_13-31-34.471868,"55.52,69.39"
2024-05-28_13-31-34.504579,"52.23,92.28"
2024-05-28_13-31-34.537394,"77.46,78.70"
2024-05-28_13-31-34.570140,"72.88,68.08"
2024-05-28_13-31-34.602848,"86.41,35.16"
2024-05-28_13-31-34.635607,"90.20,55.76"
2024-05-28_13-31-34.664426,"58.83,56.61"
2024-05-28_13-31-34.697093,"50.40,72.50"
2024-05-28_13-31-34.729830,"58.79,65.39"
2024-05-28_13-31-34.762699,"48.88,69.42"
2024-05-28_13-31-34.795468,"86.73,70.28"
2024-05-28_13-31-34.828252,"51.00,69.83"
2024-05-28_13-31-34.860834,"51.82,74.79"
2024-05-28_13-31-34.889640,"99.37,68.54"
2024-05-28_13-31-34.922364,"71.08,78.44"
2024-05-28_13-31-34.955119,"79.34,61.97"
2024-05-28_13-31-34.987907,"84.35,43.31"
2024-05-28_13-31-35.020704,"72.88,54.76"
2024-05-28_13-31-35.053480,"63.87,66.71"
2024-05-28_13-31-35.086137,"54.34,75.45"
2024-05-28_13-31-35.114953,"51.24,71.85"
2024-05-28_13-31-35.147609,"58.49,66.80"
2024-05-28_13-31-35.180436,"63.89,72.05"
2024-05-28_13-31-35.213206,"53.34,71.11"
2024-05-28_13-31-35.245913,"75.40,93.85"
2024-05-28_13-31-35.278729,"74.53,78.15"
2024-05-28_13-31-35.311402,"73.41,49.30"
2024-05-28_13-31-35.340186,"88.98,57.63"
2024-05-28_13-31-35.372951,"79.15,56.00"
2024-05-28_13-31-35.405658,"76.34,52.14"
2024-05-28_13-31-35.438527,"52.36,72.61"
2024-05-28_13-31-35.471270,"61.13,65.37"
2024-05-28_13-31-35.515495,"48.85,70.86"
2024-05-28_13-31-35.537611,"73.35,77.64"
2024-05-28_13-31-35.565572,"56.02,70.02"
2024-05-28_13-31-35.598316,"51.77,75.02"
2024-05-28_13-31-35.631010,"88.74,70.00"
2024-05-28_13-31-35.663792,"71.29,79.58"
2024-05-28_13-31-35.696681,"80.06,41.40"
2024-05-28_13-31-35.729315,"83.99,44.07"
2024-05-28_13-31-35.762008,"75.15,61.18"
2024-05-28_13-31-35.790771,"51.33,65.10"
2024-05-28_13-31-35.823522,"55.81,79.52"
2024-05-28_13-31-35.856285,"51.87,71.63"
2024-05-28_13-31-35.889043,"58.00,65.54"
2024-05-28_13-31-35.921815,"66.07,73.16"
2024-05-28_13-31-35.955415,"61.15,69.80"
2024-05-28_13-31-35.987276,"69.52,81.70"
2024-05-28_13-31-36.016052,"77.17,79.02"
2024-05-28_13-31-36.048814,"70.05,67.79"
2024-05-28_13-31-36.081523,"85.06,35.32"
2024-05-28_13-31-36.114296,"89.98,56.06"
2024-05-28_13-31-36.147100,"56.06,56.27"
2024-05-28_13-31-36.179973,"66.69,73.57"
2024-05-28_13-31-36.212621,"60.08,65.70"
2024-05-28_13-31-36.241321,"49.91,70.22"
2024-05-28_13-31-36.274080,"59.72,76.29"
2024-05-28_13-31-36.306857,"60.27,69.77"
2024-05-28_13-31-36.339624,"50.99,74.63"
2024-05-28_13-31-36.372475,"92.00,68.97"
2024-05-28_13-31-36.405187,"71.89,80.22"
2024-05-28_13-31-36.437863,"80.44,62.14"
2024-05-28_13-31-36.466552,"92.62,43.15"
2024-05-28_13-31-36.499287,"75.14,61.64"
2024-05-28_13-31-36.532104,"73.76,48.59"
2024-05-28_13-31-36.564875,"53.07,75.43"
2024-05-28_13-31-36.597662,"51.48,70.89"
2024-05-28_13-31-36.630444,"59.14,66.20"
2024-05-28_13-31-36.663152,"65.53,73.28"
2024-05-28_13-31-36.691838,"55.58,69.03"
2024-05-28_13-31-36.724700,"76.87,92.96"
2024-05-28_13-31-36.757481,"76.58,78.29"
2024-05-28_13-31-36.790159,"68.72,67.47"
2024-05-28_13-31-36.822913,"75.16,73.11"
2024-05-28_13-31-36.855720,"77.33,63.65"
2024-05-28_13-31-36.888434,"56.19,58.00"
2024-05-28_13-31-36.921093,"51.54,72.75"
2024-05-28_13-31-36.949878,"60.38,64.99"
2024-05-28_13-31-36.982737,"48.48,70.94"
2024-05-28_13-31-37.015722,"72.63,76.93"
2024-05-28_13-31-37.048252,"58.18,69.74"
2024-05-28_13-31-37.081030,"50.62,75.37"
2024-05-28_13-31-37.113768,"89.12,72.19"
2024-05-28_13-31-37.146444,"71.38,79.36"
2024-05-28_13-31-37.175208,"80.77,41.16"
2024-05-28_13-31-37.207957,"84.01,43.14"
2024-05-28_13-31-37.240737,"74.38,63.56"
2024-05-28_13-31-37.273511,"58.84,47.25"
2024-05-28_13-31-37.306340,"55.18,76.16"
2024-05-28_13-31-37.338983,"51.86,70.77"
2024-05-28_13-31-37.371771,"57.63,67.11"
2024-05-28_13-31-37.400489,"66.06,73.03"
2024-05-28_13-31-37.433275,"56.73,69.28"
2024-05-28_13-31-37.465999,"76.78,93.95"
2024-05-28_13-31-37.498778,"75.04,79.30"
2024-05-28_13-31-37.531567,"71.50,66.94"
2024-05-28_13-31-37.564361,"87.63,35.02"
2024-05-28_13-31-37.596969,"78.23,55.68"
2024-05-28_13-31-37.625762,"73.90,51.81"
2024-05-28_13-31-37.658531,"51.12,72.27"
2024-05-28_13-31-37.691321,"61.56,65.95"
2024-05-28_13-31-37.724085,"47.38,69.41"
2024-05-28_13-31-37.756868,"60.70,77.26"
2024-05-28_13-31-37.789581,"65.46,70.33"
2024-05-28_13-31-37.829060,"68.63,65.77"
2024-05-28_13-31-37.851320,"82.15,77.28"
2024-05-28_13-31-37.883888,"75.13,82.64"
2024-05-28_13-31-37.916602,"77.81,76.33"
2024-05-28_13-31-37.949380,"88.35,43.64"
2024-05-28_13-31-37.982125,"80.04,59.20"
2024-05-28_13-31-38.014877,"64.72,46.78"
2024-05-28_13-31-38.047621,"66.53,76.47"
2024-05-28_13-31-38.076412,"51.88,71.17"
2024-05-28_13-31-38.109113,"60.80,66.66"
2024-05-28_13-31-38.141908,"69.10,71.30"
2024-05-28_13-31-38.174654,"62.33,68.66"
2024-05-28_13-31-38.207366,"51.13,85.49"
2024-05-28_13-31-38.240162,"95.44,68.89"
2024-05-28_13-31-38.272949,"65.85,70.39"
2024-05-28_13-31-38.301664,"83.79,58.47"
2024-05-28_13-31-38.334418,"98.07,46.32"
2024-05-28_13-31-38.367247,"62.07,62.04"
2024-05-28_13-31-38.399954,"71.79,61.05"
2024-05-28_13-31-38.432699,"58.15,65.19"
2024-05-28_13-31-38.465448,"47.38,69.22"
2024-05-28_13-31-38.498119,"63.67,76.94"
2024-05-28_13-31-38.526910,"67.68,69.15"
2024-05-28_13-31-38.559651,"49.97,73.25"
2024-05-28_13-31-38.592436,"83.19,74.48"
2024-05-28_13-31-38.625190,"74.13,81.55"
2024-05-28_13-31-38.657953,"77.17,61.50"
2024-05-28_13-31-38.690701,"89.29,45.43"
2024-05-28_13-31-38.723429,"79.41,70.29"
2024-05-28_13-31-38.752183,"64.89,63.81"
2024-05-28_13-31-38.784971,"62.79,78.04"
2024-05-28_13-31-38.817716,"49.46,72.53"
2024-05-28_13-31-38.850492,"57.79,67.13"
2024-05-28_13-31-38.883238,"54.93,72.05"
2024-05-28_13-31-38.916032,"67.80,69.33"
2024-05-28_13-31-38.948760,"48.90,91.21"
2024-05-28_13-31-38.977492,"92.89,78.43"
2024-05-28_13-31-39.010241,"64.92,73.48"
2024-05-28_13-31-39.043194,"78.94,73.93"
2024-05-28_13-31-39.075831,"94.73,47.33"
2024-05-28_13-31-39.108601,"64.87,58.33"
2024-05-28_13-31-39.141345,"67.46,60.64"
2024-05-28_13-31-39.174049,"57.23,65.06"
2024-05-28_13-31-39.206707,"47.78,69.30"
2024-05-28_13-31-39.235508,"59.42,77.23"
2024-05-28_13-31-39.268330,"74.52,69.38"
2024-05-28_13-31-39.301873,"48.87,73.38"
2024-05-28_13-31-39.333950,"58.65,75.50"
2024-05-28_13-31-39.366700,"87.15,79.20"
2024-05-28_13-31-39.399259,"77.09,60.92"
2024-05-28_13-31-39.432034,"84.54,44.12"
2024-05-28_13-31-39.460775,"80.44,38.83"
2024-05-28_13-31-39.493627,"80.16,69.73"
2024-05-28_13-31-39.526353,"55.11,62.94"
2024-05-28_13-31-39.559163,"52.19,71.40"
2024-05-28_13-31-39.591913,"58.56,65.32"
2024-05-28_13-31-39.624613,"53.76,72.61"
2024-05-28_13-31-39.657285,"76.54,68.18"
2024-05-28_13-31-39.686119,"47.55,80.33"
2024-05-28_13-31-39.718862,"69.57,77.50"
2024-05-28_13-31-39.751602,"79.84,72.22"
2024-05-28_13-31-39.784522,"77.92,73.64"
2024-05-28_13-31-39.817203,"92.78,46.92"
2024-05-28_13-31-39.849875,"39.71,64.67"
2024-05-28_13-31-39.882592,"63.11,75.52"
2024-05-28_13-31-39.911508,"58.29,65.11"
2024-05-28_13-31-39.944160,"46.84,69.30"
2024-05-28_13-31-39.977146,"62.44,76.42"
2024-05-28_13-31-40.009687,"75.58,68.15"
2024-05-28_13-31-40.042452,"51.90,74.47"
2024-05-28_13-31-40.075167,"57.80,75.06"
2024-05-28_13-31-40.107857,"89.36,75.28"
2024-05-28_13-31-40.136646,"77.47,75.72"
2024-05-28_13-31-40.169424,"87.46,45.16"
2024-05-28_13-31-40.202183,"78.97,66.04"
2024-05-28_13-31-40.234931,"64.35,46.50"
2024-05-28_13-31-40.267693,"64.85,77.80"
2024-05-28_13-31-40.300477,"51.60,70.76"
2024-05-28_13-31-40.333189,"59.60,65.69"
2024-05-28_13-31-40.361920,"55.93,71.78"
2024-05-28_13-31-40.394676,"68.43,67.86"
2024-05-28_13-31-40.427441,"49.41,79.03"
2024-05-28_13-31-40.460204,"82.38,78.19"
2024-05-28_13-31-40.492994,"79.61,72.64"
2024-05-28_13-31-40.525723,"76.77,58.42"
2024-05-28_13-31-40.558542,"94.69,48.48"
2024-05-28_13-31-40.587251,"66.41,67.24"
2024-05-28_13-31-40.619946,"63.63,61.00"
2024-05-28_13-31-40.652786,"59.23,65.80"
2024-05-28_13-31-40.685515,"46.43,69.17"
2024-05-28_13-31-40.718266,"60.45,75.73"
2024-05-28_13-31-40.751098,"77.18,68.83"
2024-05-28_13-31-40.783766,"50.54,74.51"
2024-05-28_13-31-40.812470,"57.05,78.72"
2024-05-28_13-31-40.845212,"84.89,79.42"
2024-05-28_13-31-40.878011,"70.94,76.40"
2024-05-28_13-31-40.910774,"79.37,65.66"
2024-05-28_13-31-40.943597,"87.92,39.19"
2024-05-28_13-31-40.976383,"81.57,63.15"
2024-05-28_13-31-41.008998,"49.79,61.96"
2024-05-28_13-31-41.037828,"52.07,71.22"
2024-05-28_13-31-41.070606,"57.86,65.31"
2024-05-28_13-31-41.103344,"53.80,72.26"
2024-05-28_13-31-41.136085,"65.96,67.82"
2024-05-28_13-31-41.168863,"48.03,79.60"
2024-05-28_13-31-41.201640,"69.27,82.93"
2024-05-28_13-31-41.234363,"86.79,65.28"
2024-05-28_13-31-41.263050,"73.12,73.64"
2024-05-28_13-31-41.295836,"87.45,47.98"
2024-05-28_13-31-41.328632,"86.76,39.59"
2024-05-28_13-31-41.361377,"71.27,64.79"
2024-05-28_13-31-41.394172,"62.70,66.20"
2024-05-28_13-31-41.426914,"45.33,70.04"
2024-05-28_13-31-41.459625,"61.37,75.26"
2024-05-28_13-31-41.488387,"56.95,68.61"
2024-05-28_13-31-41.521126,"63.66,72.90"
2024-05-28_13-31-41.553924,"56.73,69.91"
2024-05-28_13-31-41.586639,"67.06,93.27"
2024-05-28_13-31-41.619380,"98.70,74.64"
2024-05-28_13-31-41.652246,"63.36,66.28"
2024-05-28_13-31-41.684910,"82.16,38.75"
2024-05-28_13-31-41.713597,"85.15,49.69"
2024-05-28_13-31-41.746404,"57.42,63.79"
2024-05-28_13-31-41.779184,"64.17,74.83"
2024-05-28_13-31-41.811925,"55.38,65.22"
2024-05-28_13-31-41.844701,"53.46,70.36"
2024-05-28_13-31-41.877489,"83.50,68.10"
2024-05-28_13-31-41.910202,"72.84,81.46"
2024-05-28_13-31-41.942916,"50.44,74.70"
2024-05-28_13-31-41.971746,"79.13,83.56"
2024-05-28_13-31-42.004434,"74.48,77.41"
2024-05-28_13-31-42.037232,"81.17,67.56"
2024-05-28_13-31-42.070072,"89.08,60.99"
2024-05-28_13-31-42.102851,"66.98,63.37"
2024-05-28_13-31-42.135452,"65.05,46.56"
2024-05-28_13-31-42.168364,"42.02,70.61"
2024-05-28_13-31-42.197385,"58.82,75.24"
2024-05-28_13-31-42.229831,"58.17,67.92"
2024-05-28_13-31-42.262529,"65.69,71.98"
2024-05-28_13-31-42.295278,"60.02,69.61"
2024-05-28_13-31-42.328051,"52.26,81.78"
2024-05-28_13-31-42.360813,"90.22,78.42"
2024-05-28_13-31-42.393466,"63.01,67.17"
2024-05-28_13-31-42.422263,"83.95,60.88"
2024-05-28_13-31-42.455052,"96.70,50.46"
2024-05-28_13-31-42.487878,"59.63,59.09"
2024-05-28_13-31-42.520532,"53.09,73.92"
2024-05-28_13-31-42.553308,"56.91,64.53"
2024-05-28_13-31-42.586080,"53.09,70.32"
2024-05-28_13-31-42.618780,"62.65,67.40"
2024-05-28_13-31-42.647534,"57.96,78.90"
2024-05-28_13-31-42.680274,"50.34,74.20"
2024-05-28_13-31-42.713075,"78.32,85.73"
2024-05-28_13-31-42.745802,"74.00,76.78"
2024-05-28_13-31-42.778678,"79.78,67.83"
2024-05-28_13-31-42.811394,"90.59,42.19"
2024-05-28_13-31-42.844116,"80.26,40.73"
2024-05-28_13-31-42.872851,"65.27,56.75"
2024-05-28_13-31-42.905627,"42.39,74.01"
2024-05-28_13-31-42.938374,"59.70,75.39"
2024-05-28_13-31-42.971169,"56.07,66.26"
2024-05-28_13-31-43.003907,"53.52,71.54"
2024-05-28_13-31-43.036715,"73.43,68.18"
2024-05-28_13-31-43.069405,"48.37,74.05"
2024-05-28_13-31-43.098131,"68.76,84.04"
2024-05-28_13-31-43.130835,"76.47,67.23"
2024-05-28_13-31-43.163699,"76.27,75.54"
2024-05-28_13-31-43.196431,"93.02,47.57"
2024-05-28_13-31-43.229244,"69.55,38.48"
2024-05-28_13-31-43.261901,"74.58,57.81"
2024-05-28_13-31-43.294665,"50.94,64.37"
2024-05-28_13-31-43.323374,"52.67,70.16"
2024-05-28_13-31-43.356157,"60.88,66.65"
2024-05-28_13-31-43.388889,"65.08,77.71"
2024-05-28_13-31-43.421676,"54.04,73.25"
2024-05-28_13-31-43.454416,"52.38,71.42"
2024-05-28_13-31-43.487395,"78.86,77.21"
2024-05-28_13-31-43.519920,"78.86,68.36"
2024-05-28_13-31-43.548679,"74.75,61.62"
2024-05-28_13-31-43.581413,"89.08,42.30"
2024-05-28_13-31-43.614184,"85.87,64.58"
2024-05-28_13-31-43.646970,"56.33,56.51"
2024-05-28_13-31-43.679748,"57.39,75.51"
2024-05-28_13-31-43.712522,"56.58,66.26"
2024-05-28_13-31-43.745229,"53.18,72.14"
2024-05-28_13-31-43.777917,"80.10,68.84"
2024-05-28_13-31-43.806718,"47.49,72.24"
2024-05-28_13-31-43.839502,"69.49,84.24"
2024-05-28_13-31-43.872254,"79.80,64.45"
2024-05-28_13-31-43.905039,"71.62,73.36"
2024-05-28_13-31-43.937814,"74.22,69.08"
2024-05-28_13-31-43.970473,"71.12,41.74"
2024-05-28_13-31-44.003192,"83.66,59.78"
2024-05-28_13-31-44.032003,"48.59,63.86"
2024-05-28_13-31-44.064791,"52.13,70.57"
2024-05-28_13-31-44.097530,"60.76,66.09"
2024-05-28_13-31-44.130336,"69.10,76.54"
2024-05-28_13-31-44.163082,"60.32,74.35"
2024-05-28_13-31-44.195804,"54.85,70.58"
2024-05-28_13-31-44.228532,"76.77,78.80"
2024-05-28_13-31-44.257271,"84.63,64.84"
2024-05-28_13-31-44.290041,"70.99,77.68"
2024-05-28_13-31-44.322815,"84.86,42.03"
2024-05-28_13-31-44.358508,"83.90,46.15"
2024-05-28_13-31-44.388433,"78.24,56.14"
2024-05-28_13-31-44.421110,"53.15,74.66"
2024-05-28_13-31-44.453798,"55.25,66.17"
2024-05-28_13-31-44.482540,"54.59,71.05"
2024-05-28_13-31-44.515387,"72.61,67.05"
2024-05-28_13-31-44.548140,"58.64,71.45"
2024-05-28_13-31-44.580892,"51.27,81.07"
2024-05-28_13-31-44.613618,"74.33,70.73"
2024-05-28_13-31-44.646329,"74.10,77.12"
2024-05-28_13-31-44.679062,"78.79,68.26"
2024-05-28_13-31-44.707838,"94.00,40.04"
2024-05-28_13-31-44.740650,"77.48,59.73"
2024-05-28_13-31-44.773387,"66.14,46.81"
2024-05-28_13-31-44.806194,"50.56,71.31"
2024-05-28_13-31-44.838961,"59.37,64.80"
2024-05-28_13-31-44.871643,"57.59,76.08"
2024-05-28_13-31-44.904342,"65.70,73.58"
2024-05-28_13-31-44.933159,"58.64,69.69"
2024-05-28_13-31-44.966017,"69.83,80.99"
2024-05-28_13-31-44.998777,"94.19,62.01"
2024-05-28_13-31-45.031442,"57.08,80.20"
2024-05-28_13-31-45.064244,"79.95,62.23"
2024-05-28_13-31-45.096992,"97.45,46.29"
2024-05-28_13-31-45.129845,"70.83,54.08"
2024-05-28_13-31-45.158842,"67.84,61.92"
2024-05-28_13-31-45.191226,"52.95,65.33"
2024-05-28_13-31-45.223999,"51.80,70.77"
2024-05-28_13-31-45.256724,"61.86,66.84"
2024-05-28_13-31-45.289494,"73.48,70.34"
2024-05-28_13-31-45.322248,"54.64,80.11"
2024-05-28_13-31-45.354948,"51.17,77.12"
2024-05-28_13-31-45.383667,"94.70,68.53"
2024-05-28_13-31-45.416472,"69.88,69.92"
2024-05-28_13-31-45.449247,"85.38,61.55"
2024-05-28_13-31-45.481999,"90.40,41.18"
2024-05-28_13-31-45.514743,"63.31,62.42"
2024-05-28_13-31-45.547502,"69.44,59.12"
2024-05-28_13-31-45.580236,"58.19,64.90"
2024-05-28_13-31-45.609032,"57.70,76.15"
2024-05-28_13-31-45.641742,"53.62,72.16"
2024-05-28_13-31-45.674499,"74.58,67.54"
2024-05-28_13-31-45.707290,"53.37,74.40"
2024-05-28_13-31-45.740160,"68.84,75.23"
2024-05-28_13-31-45.773415,"78.38,75.54"
2024-05-28_13-31-45.805574,"75.21,61.49"
2024-05-28_13-31-45.834264,"88.21,48.31"
2024-05-28_13-31-45.867318,"85.70,34.17"
2024-05-28_13-31-45.899985,"84.25,69.33"
2024-05-28_13-31-45.932617,"51.69,64.73"
2024-05-28_13-31-45.965446,"51.13,71.92"
2024-05-28_13-31-45.998186,"62.64,67.95"
2024-05-28_13-31-46.030837,"63.92,72.62"
2024-05-28_13-31-46.059605,"61.42,78.57"
2024-05-28_13-31-46.092325,"49.45,71.04"
2024-05-28_13-31-46.125193,"69.46,81.61"
2024-05-28_13-31-46.157878,"85.12,66.05"
2024-05-28_13-31-46.190688,"77.46,76.91"
2024-05-28_13-31-46.223448,"85.81,41.57"
2024-05-28_13-31-46.256136,"68.14,42.67"
2024-05-28_13-31-46.285001,"84.42,63.41"
2024-05-28_13-31-46.318855,"53.45,65.09"
2024-05-28_13-31-46.350451,"57.39,75.94"
2024-05-28_13-31-46.386417,"53.36,70.92"
2024-05-28_13-31-46.416004,"71.02,66.65"
2024-05-28_13-31-46.448663,"62.25,73.42"
2024-05-28_13-31-46.481359,"51.22,69.71"
2024-05-28_13-31-46.514071,"89.47,86.41"
2024-05-28_13-31-46.542947,"73.37,77.89"
2024-05-28_13-31-46.575681,"76.79,48.60"
2024-05-28_13-31-46.608441,"90.30,35.17"
2024-05-28_13-31-46.641188,"79.75,66.53"
2024-05-28_13-31-46.673954,"62.01,48.08"
2024-05-28_13-31-46.706671,"51.08,71.55"
2024-05-28_13-31-46.739422,"62.37,66.63"
2024-05-28_13-31-46.768183,"48.07,70.18"
2024-05-28_13-31-46.800917,"71.39,76.52"
2024-05-28_13-31-46.833655,"55.99,70.39"
2024-05-28_13-31-46.866507,"51.23,74.87"
2024-05-28_13-31-46.899377,"86.83,72.21"
2024-05-28_13-31-46.931996,"73.41,79.39"
2024-05-28_13-31-46.964646,"80.42,61.31"
2024-05-28_13-31-46.993450,"81.79,64.77"
2024-05-28_13-31-47.026231,"56.37,65.90"
2024-05-28_13-31-47.059021,"59.68,66.41"
2024-05-28_13-31-47.091759,"53.12,75.04"
2024-05-28_13-31-47.124518,"52.92,71.18"
2024-05-28_13-31-47.157208,"58.65,66.08"
2024-05-28_13-31-47.189949,"65.29,73.96"
2024-05-28_13-31-47.218752,"56.37,69.68"
2024-05-28_13-31-47.251451,"52.81,82.63"
2024-05-28_13-31-47.284262,"91.48,74.15"
2024-05-28_13-31-47.317029,"66.14,68.12"
2024-05-28_13-31-47.349765,"83.44,57.63"
2024-05-28_13-31-47.382526,"99.21,46.16"
2024-05-28_13-31-47.415230,"59.97,50.35"
2024-05-28_13-31-47.444015,"56.92,59.61"
2024-05-28_13-31-47.476770,"57.93,65.51"
2024-05-28_13-31-47.509550,"48.64,69.82"
2024-05-28_13-31-47.542303,"60.58,76.12"
2024-05-28_13-31-47.575207,"70.08,70.69"
2024-05-28_13-31-47.607776,"50.46,74.11"
2024-05-28_13-31-47.640556,"58.51,73.52"
2024-05-28_13-31-47.669280,"88.54,76.94"
2024-05-28_13-31-47.702064,"75.90,62.09"
2024-05-28_13-31-47.734835,"80.41,45.08"
2024-05-28_13-31-47.767764,"90.12,38.18"
2024-05-28_13-31-47.800426,"80.88,62.94"
2024-05-28_13-31-47.833142,"53.69,62.51"
2024-05-28_13-31-47.866000,"51.96,70.89"
2024-05-28_13-31-47.894708,"58.77,66.12"
2024-05-28_13-31-47.927377,"53.88,71.08"
2024-05-28_13-31-47.960142,"73.93,68.23"
2024-05-28_13-31-47.994332,"48.23,81.00"
2024-05-28_13-31-48.028201,"90.37,83.54"
2024-05-28_13-31-48.059640,"84.85,76.28"
2024-05-28_13-31-48.091158,"78.72,74.15"
2024-05-28_13-31-48.120007,"90.00,48.10"
2024-05-28_13-31-48.152661,"77.55,39.21"
2024-05-28_13-31-48.185447,"82.46,60.37"
2024-05-28_13-31-48.218217,"52.62,65.79"
2024-05-28_13-31-48.250942,"45.45,68.98"
2024-05-28_13-31-48.283662,"59.63,75.80"
2024-05-28_13-31-48.316388,"72.68,68.38"
2024-05-28_13-31-48.345148,"61.33,72.22"
2024-05-28_13-31-48.377951,"58.31,70.10"
2024-05-28_13-31-48.410665,"67.43,92.75"
2024-05-28_13-31-48.443413,"86.10,78.57"
2024-05-28_13-31-48.476204,"66.62,65.91"
2024-05-28_13-31-48.508980,"84.34,60.54"
2024-05-28_13-31-48.541716,"96.98,49.71"
2024-05-28_13-31-48.570504,"57.19,60.41"
2024-05-28_13-31-48.603259,"66.77,75.01"
2024-05-28_13-31-48.635976,"55.51,64.37"
2024-05-28_13-31-48.668750,"52.95,70.25"
2024-05-28_13-31-48.701458,"62.33,66.74"
2024-05-28_13-31-48.734246,"60.90,79.51"
2024-05-28_13-31-48.766974,"50.36,73.81"
2024-05-28_13-31-48.795699,"79.37,83.58"
2024-05-28_13-31-48.828488,"73.25,76.25"
2024-05-28_13-31-48.861277,"80.16,67.48"
2024-05-28_13-31-48.894060,"91.45,42.30"
2024-05-28_13-31-48.926778,"79.82,59.88"
2024-05-28_13-31-48.959574,"66.40,46.41"
2024-05-28_13-31-48.992365,"43.14,70.38"
2024-05-28_13-31-49.024981,"59.22,79.56"
2024-05-28_13-31-49.053786,"56.04,65.89"
2024-05-28_13-31-49.086573,"52.77,71.92"
2024-05-28_13-31-49.119354,"68.91,68.48"
2024-05-28_13-31-49.152061,"49.81,87.43"
2024-05-28_13-31-49.184809,"88.94,82.33"
2024-05-28_13-31-49.217589,"60.00,71.33"
2024-05-28_13-31-49.250464,"77.37,60.30"
2024-05-28_13-31-49.279076,"97.36,46.94"
2024-05-28_13-31-49.311824,"66.14,57.25"
2024-05-28_13-31-49.344585,"67.36,60.97"
2024-05-28_13-31-49.377546,"54.95,64.76"
2024-05-28_13-31-49.410165,"52.10,70.14"
2024-05-28_13-31-49.442839,"61.86,66.55"
2024-05-28_13-31-49.475561,"75.75,78.11"
2024-05-28_13-31-49.504504,"49.97,73.89"
2024-05-28_13-31-49.537135,"54.28,75.99"
2024-05-28_13-31-49.569894,"94.65,67.53"
2024-05-28_13-31-49.603133,"75.43,69.85"
2024-05-28_13-31-49.635486,"78.65,61.55"
2024-05-28_13-31-49.668094,"91.20,41.99"
2024-05-28_13-31-49.700870,"73.44,64.75"
2024-05-28_13-31-49.729600,"67.74,57.86"
2024-05-28_13-31-49.762350,"56.96,75.30"
2024-05-28_13-31-49.795148,"56.46,66.08"
2024-05-28_13-31-49.827938,"53.91,72.13"
2024-05-28_13-31-49.860678,"72.24,68.06"
2024-05-28_13-31-49.893428,"51.87,71.65"
2024-05-28_13-31-49.927745,"51.41,81.23"
2024-05-28_13-31-49.954878,"83.85,68.79"
2024-05-28_13-31-49.987696,"72.99,75.71"
2024-05-28_13-31-50.020449,"79.35,66.70"
2024-05-28_13-31-50.053182,"62.40,80.32"
2024-05-28_13-31-50.085976,"74.22,57.65"
2024-05-28_13-31-50.118697,"61.58,45.15"
2024-05-28_13-31-50.151371,"51.27,71.87"
2024-05-28_13-31-50.180175,"59.73,65.50"
2024-05-28_13-31-50.212945,"57.31,75.35"
2024-05-28_13-31-50.245712,"50.97,73.19"
2024-05-28_13-31-50.278471,"66.79,69.13"
2024-05-28_13-31-50.311301,"55.45,76.57"
2024-05-28_13-31-50.343977,"95.31,66.93"
2024-05-28_13-31-50.376662,"59.21,81.75"
2024-05-28_13-31-50.405533,"79.04,61.77"
2024-05-28_13-31-50.438209,"96.45,47.01"
2024-05-28_13-31-50.470976,"72.33,54.99"
2024-05-28_13-31-50.503737,"64.94,62.74"
2024-05-28_13-31-50.536535,"52.65,64.91"
2024-05-28_13-31-50.569356,"54.32,71.05"
2024-05-28_13-31-50.602037,"61.27,65.63"
2024-05-28_13-31-50.630780,"63.41,69.93"
2024-05-28_13-31-50.663545,"63.81,78.79"
2024-05-28_13-31-50.696330,"48.69,72.44"
2024-05-28_13-31-50.729010,"68.74,76.74"
2024-05-28_13-31-50.761777,"82.70,71.33"
2024-05-28_13-31-50.794607,"79.74,62.19"
2024-05-28_13-31-50.827296,"86.51,41.29"
2024-05-28_13-31-50.856008,"67.89,43.20"
2024-05-28_13-31-50.888783,"74.03,54.85"
2024-05-28_13-31-50.921565,"54.19,64.58"
2024-05-28_13-31-50.954334,"56.66,75.54"
2024-05-28_13-31-50.987304,"51.88,72.46"
2024-05-28_13-31-51.031304,"65.96,66.95"
2024-05-28_13-31-51.052993,"75.23,77.65"
2024-05-28_13-31-51.081404,"46.97,71.57"
2024-05-28_13-31-51.114082,"82.67,80.04"
2024-05-28_13-31-51.146940,"72.99,77.86"
2024-05-28_13-31-51.179613,"76.93,66.28"
2024-05-28_13-31-51.212383,"90.07,34.88"
2024-05-28_13-31-51.245136,"78.89,60.23"
2024-05-28_13-31-51.277883,"76.62,49.36"
2024-05-28_13-31-51.306578,"50.38,71.93"
2024-05-28_13-31-51.339783,"60.99,66.18"
2024-05-28_13-31-51.372156,"48.13,69.63"
2024-05-28_13-31-51.404894,"73.50,77.87"
2024-05-28_13-31-51.437638,"59.74,70.77"
2024-05-28_13-31-51.470470,"51.24,73.99"
2024-05-28_13-31-51.503112,"77.92,77.49"
2024-05-28_13-31-51.531886,"71.34,80.13"
2024-05-28_13-31-51.564627,"79.52,61.35"
2024-05-28_13-31-51.597435,"92.96,43.01"
2024-05-28_13-31-51.630165,"78.82,58.07"
2024-05-28_13-31-51.662917,"65.61,46.64"
2024-05-28_13-31-51.695744,"51.80,76.09"
2024-05-28_13-31-51.728487,"52.71,71.30"
2024-05-28_13-31-51.761134,"58.67,65.27"
2024-05-28_13-31-51.789919,"53.09,72.79"
2024-05-28_13-31-51.822755,"69.78,68.79"
2024-05-28_13-31-51.855460,"48.89,79.22"
2024-05-28_13-31-51.888211,"69.24,77.76"
2024-05-28_13-31-51.920990,"79.98,69.50"
2024-05-28_13-31-51.953742,"74.55,73.97"
2024-05-28_13-31-51.986388,"89.68,47.79"
2024-05-28_13-31-52.015735,"78.72,40.19"
2024-05-28_13-31-52.048118,"71.59,73.42"
2024-05-28_13-31-52.080827,"56.87,67.26"
2024-05-28_13-31-52.114500,"45.72,71.89"
2024-05-28_13-31-52.146322,"61.72,75.92"
2024-05-28_13-31-52.179140,"56.61,67.03"
2024-05-28_13-31-52.216743,"62.08,73.68"
2024-05-28_13-31-52.241754,"59.85,70.80"
2024-05-28_13-31-52.275005,"52.68,90.77"
2024-05-28_13-31-52.306430,"90.51,74.59"
2024-05-28_13-31-52.338835,"61.21,68.10"
2024-05-28_13-31-52.371780,"80.18,60.16"
2024-05-28_13-31-52.404314,"101.67,47.12"
2024-05-28_13-31-52.437019,"63.76,60.55"
2024-05-28_13-31-52.465794,"69.38,60.16"
2024-05-28_13-31-52.498558,"55.01,64.53"
2024-05-28_13-31-52.531623,"54.74,70.97"
2024-05-28_13-31-52.564137,"61.25,65.52"
2024-05-28_13-31-52.596837,"72.82,77.92"
2024-05-28_13-31-52.629593,"49.47,74.15"
2024-05-28_13-31-52.662261,"53.37,75.09"
2024-05-28_13-31-52.691199,"92.69,68.23"
2024-05-28_13-31-52.723872,"77.48,70.56"
2024-05-28_13-31-52.756586,"81.06,61.48"
2024-05-28_13-31-52.789416,"89.84,41.93"
2024-05-28_13-31-52.822187,"68.55,64.32"
2024-05-28_13-31-52.854869,"62.28,56.13"
2024-05-28_13-31-52.887578,"57.39,74.41"
2024-05-28_13-31-52.916300,"58.34,66.44"
2024-05-28_13-31-52.949109,"52.55,72.02"
2024-05-28_13-31-52.981979,"78.75,67.91"
2024-05-28_13-31-53.014704,"48.32,72.62"
2024-05-28_13-31-53.047602,"71.56,91.50"
2024-05-28_13-31-53.080547,"67.48,66.92"
2024-05-28_13-31-53.112918,"77.26,75.67"
2024-05-28_13-31-53.141651,"91.85,47.43"
2024-05-28_13-31-53.174410,"81.82,38.08"
2024-05-28_13-31-53.207113,"85.14,61.47"
2024-05-28_13-31-53.239872,"50.09,64.04"
2024-05-28_13-31-53.272707,"51.73,70.35"
2024-05-28_13-31-53.305492,"60.60,65.70"
2024-05-28_13-31-53.338142,"55.69,76.16"
2024-05-28_13-31-53.366962,"63.20,74.25"
2024-05-28_13-31-53.399682,"57.61,69.90"
2024-05-28_13-31-53.432688,"60.51,94.62"
2024-05-28_13-31-53.465384,"90.52,64.94"
2024-05-28_13-31-53.497994,"66.57,78.02"
2024-05-28_13-31-53.530793,"83.35,42.12"
2024-05-28_13-31-53.563434,"82.20,45.81"
2024-05-28_13-31-53.592242,"78.48,56.45"
2024-05-28_13-31-53.625014,"53.18,75.40"
2024-05-28_13-31-53.657740,"55.00,66.09"
2024-05-28_13-31-53.690624,"53.97,71.05"
2024-05-28_13-31-53.723244,"61.84,66.43"
2024-05-28_13-31-53.756031,"65.29,72.44"
2024-05-28_13-31-53.788795,"50.39,80.43"
2024-05-28_13-31-53.817552,"52.50,72.83"
2024-05-28_13-31-53.850303,"91.89,73.49"
2024-05-28_13-31-53.883016,"73.49,68.36"
2024-05-28_13-31-53.915816,"86.52,41.67"
2024-05-28_13-31-53.948612,"90.95,41.22"
2024-05-28_13-31-53.981296,"61.36,65.97"
2024-05-28_13-31-54.014043,"68.91,58.26"
2024-05-28_13-31-54.042761,"56.59,64.35"
2024-05-28_13-31-54.075559,"58.38,76.10"
2024-05-28_13-31-54.108385,"67.74,75.12"
2024-05-28_13-31-54.141118,"74.01,66.58"
2024-05-28_13-31-54.173872,"55.35,74.20"
2024-05-28_13-31-54.206592,"52.37,79.67"
2024-05-28_13-31-54.239299,"84.97,86.88"
2024-05-28_13-31-54.268013,"73.30,76.71"
2024-05-28_13-31-54.300835,"83.18,48.85"
2024-05-28_13-31-54.333651,"93.74,34.65"
2024-05-28_13-31-54.366346,"65.47,78.27"
2024-05-28_13-31-54.399087,"68.21,65.46"
2024-05-28_13-31-54.431917,"51.95,70.86"
2024-05-28_13-31-54.464651,"59.59,65.75"
2024-05-28_13-31-54.497282,"51.83,70.36"
2024-05-28_13-31-54.526164,"68.85,77.06"
2024-05-28_13-31-54.558875,"55.93,70.47"
2024-05-28_13-31-54.591669,"51.84,73.43"
2024-05-28_13-31-54.624395,"77.24,67.06"
2024-05-28_13-31-54.657147,"70.96,79.89"
2024-05-28_13-31-54.689907,"80.21,62.16"
2024-05-28_13-31-54.722537,"89.40,43.59"
2024-05-28_13-31-54.751380,"79.87,60.30"
2024-05-28_13-31-54.784149,"66.96,47.22"
2024-05-28_13-31-54.816947,"51.28,76.30"
2024-05-28_13-31-54.849695,"50.98,70.59"
2024-05-28_13-31-54.882460,"59.89,65.54"
2024-05-28_13-31-54.915168,"68.35,73.35"
2024-05-28_13-31-54.947884,"66.56,68.25"
2024-05-28_13-31-54.976687,"49.57,79.48"
2024-05-28_13-31-55.009435,"94.05,77.76"
2024-05-28_13-31-55.042274,"79.80,69.57"
2024-05-28_13-31-55.074984,"76.54,73.76"
2024-05-28_13-31-55.107697,"90.85,47.30"
2024-05-28_13-31-55.140470,"71.91,63.77"
2024-05-28_13-31-55.173162,"65.63,63.23"
2024-05-28_13-31-55.201942,"55.69,64.85"
2024-05-28_13-31-55.234698,"45.81,69.47"
2024-05-28_13-31-55.267460,"60.90,75.55"
2024-05-28_13-31-55.300302,"70.02,67.58"
2024-05-28_13-31-55.333016,"60.69,74.05"
2024-05-28_13-31-55.365742,"57.36,70.88"
2024-05-28_13-31-55.398503,"80.12,90.81"
2024-05-28_13-31-55.427246,"84.71,78.32"
2024-05-28_13-31-55.460056,"66.85,66.19"
2024-05-28_13-31-55.492744,"82.45,59.87"
2024-05-28_13-31-55.525504,"95.77,46.26"
2024-05-28_13-31-55.558288,"59.99,57.52"
2024-05-28_13-31-55.591052,"60.58,60.09"
2024-05-28_13-31-55.624000,"54.87,64.93"
2024-05-28_13-31-55.652609,"53.49,70.96"
2024-05-28_13-31-55.685318,"61.04,65.69"
2024-05-28_13-31-55.718015,"69.11,78.88"
2024-05-28_13-31-55.750794,"49.35,74.85"
2024-05-28_13-31-55.783629,"54.76,71.99"
2024-05-28_13-31-55.816327,"92.09,69.65"
2024-05-28_13-31-55.849028,"76.76,69.70"
2024-05-28_13-31-55.877770,"79.24,42.07"
2024-05-28_13-31-55.910520,"88.98,41.61"
2024-05-28_13-31-55.943331,"72.35,62.91"
2024-05-28_13-31-55.976093,"57.31,56.23"
2024-05-28_13-31-56.008838,"55.20,74.74"
2024-05-28_13-31-56.041606,"58.46,67.15"
2024-05-28_13-31-56.074261,"54.05,70.69"
2024-05-28_13-31-56.103061,"70.17,67.23"
2024-05-28_13-31-56.135790,"55.40,72.88"
2024-05-28_13-31-56.168696,"68.04,84.64"
2024-05-28_13-31-56.201451,"82.46,71.04"
2024-05-28_13-31-56.234183,"72.59,76.60"
2024-05-28_13-31-56.266882,"79.84,49.78"
2024-05-28_13-31-56.299640,"93.17,40.26"
2024-05-28_13-31-56.328351,"80.30,60.87"
2024-05-28_13-31-56.361125,"59.03,45.10"
2024-05-28_13-31-56.393872,"50.65,71.93"
2024-05-28_13-31-56.426667,"59.72,64.93"
2024-05-28_13-31-56.459417,"59.94,75.86"
2024-05-28_13-31-56.492151,"51.72,71.68"
2024-05-28_13-31-56.524872,"70.55,68.03"
2024-05-28_13-31-56.553665,"53.65,73.35"
2024-05-28_13-31-56.586420,"68.49,73.80"
2024-05-28_13-31-56.619149,"75.14,81.31"
2024-05-28_13-31-56.651906,"78.42,62.41"
2024-05-28_13-31-56.684688,"89.98,46.98"
2024-05-28_13-31-56.717461,"85.76,34.29"
2024-05-28_13-31-56.750222,"73.59,68.28"
2024-05-28_13-31-56.778964,"50.22,64.12"
2024-05-28_13-31-56.811771,"50.90,70.21"
2024-05-28_13-31-56.844823,"61.75,65.93"
2024-05-28_13-31-56.877263,"64.42,71.75"
2024-05-28_13-31-56.910071,"64.58,78.06"
2024-05-28_13-31-56.942772,"50.24,70.80"
2024-05-28_13-31-56.975506,"51.97,81.07"
2024-05-28_13-31-57.004238,"91.03,76.65"
2024-05-28_13-31-57.037076,"74.26,77.85"
2024-05-28_13-31-57.069816,"81.66,40.84"
2024-05-28_13-31-57.102593,"87.80,43.03"
2024-05-28_13-31-57.135383,"70.83,78.93"
2024-05-28_13-31-57.168121,"62.79,66.31"
2024-05-28_13-31-57.200769,"55.58,79.11"
2024-05-28_13-31-57.229484,"53.45,71.80"
2024-05-28_13-31-57.262234,"56.82,65.84"
2024-05-28_13-31-57.295043,"64.37,73.71"
2024-05-28_13-31-57.327788,"56.50,70.02"
2024-05-28_13-31-57.360661,"78.38,93.93"
2024-05-28_13-31-57.393380,"89.87,78.49"
2024-05-28_13-31-57.426044,"66.89,68.78"
2024-05-28_13-31-57.454759,"83.29,57.77"
2024-05-28_13-31-57.487507,"99.33,46.10"
2024-05-28_13-31-57.520308,"60.73,66.05"
2024-05-28_13-31-57.553082,"73.53,59.82"
2024-05-28_13-31-57.585923,"58.71,65.44"
2024-05-28_13-31-57.618738,"47.81,70.11"
2024-05-28_13-31-57.651381,"61.52,75.89"
2024-05-28_13-31-57.684045,"70.32,70.49"
2024-05-28_13-31-57.712857,"49.48,74.06"
2024-05-28_13-31-57.745561,"58.08,72.26"
2024-05-28_13-31-57.778389,"87.75,77.93"
2024-05-28_13-31-57.811099,"76.89,61.77"
2024-05-28_13-31-57.846714,"80.97,45.09"
2024-05-28_13-31-57.876631,"89.12,38.38"
2024-05-28_13-31-57.909342,"79.11,61.82"
2024-05-28_13-31-57.938067,"51.39,62.49"
2024-05-28_13-31-57.970838,"51.03,71.32"
2024-05-28_13-31-58.003669,"59.91,66.04"
2024-05-28_13-31-58.036451,"54.25,70.72"
2024-05-28_13-31-58.069197,"70.03,66.80"
2024-05-28_13-31-58.101915,"55.59,80.12"
2024-05-28_13-31-58.134656,"51.80,74.65"
2024-05-28_13-31-58.163378,"84.17,74.34"
2024-05-28_13-31-58.196146,"68.27,72.13"
2024-05-28_13-31-58.228913,"83.49,70.74"
2024-05-28_13-31-58.261676,"86.20,62.27"
2024-05-28_13-31-58.294465,"73.41,51.21"
2024-05-28_13-31-58.327233,"59.70,48.90"
2024-05-28_13-31-58.359892,"43.81,69.62"
2024-05-28_13-31-58.388659,"59.96,74.67"
2024-05-28_13-31-58.421407,"59.21,67.84"
2024-05-28_13-31-58.454209,"66.36,71.77"
2024-05-28_13-31-58.486958,"60.39,69.24"
2024-05-28_13-31-58.519799,"51.87,80.77"
2024-05-28_13-31-58.552502,"83.04,71.04"
2024-05-28_13-31-58.585243,"59.86,69.53"
2024-05-28_13-31-58.613988,"80.62,61.44"
2024-05-28_13-31-58.646782,"97.50,46.86"
2024-05-28_13-31-58.679459,"80.86,57.53"
2024-05-28_13-31-58.712261,"67.26,60.88"
2024-05-28_13-31-58.744932,"52.74,64.09"
2024-05-28_13-31-58.777983,"50.91,70.00"
2024-05-28_13-31-58.810444,"62.78,65.44"
2024-05-28_13-31-58.839224,"65.63,78.47"
2024-05-28_13-31-58.872367,"54.52,73.75"
2024-05-28_13-31-58.904990,"53.04,80.29"
2024-05-28_13-31-58.937551,"99.40,77.18"
2024-05-28_13-31-58.970322,"78.03,70.40"
2024-05-28_13-31-59.003079,"72.59,77.21"
2024-05-28_13-31-59.035822,"85.99,41.13"
2024-05-28_13-31-59.064516,"85.52,45.55"
2024-05-28_13-31-59.097309,"78.83,57.61"
2024-05-28_13-31-59.130069,"53.12,75.18"
2024-05-28_13-31-59.162960,"57.22,66.57"
2024-05-28_13-31-59.195649,"52.91,71.71"
2024-05-28_13-31-59.228314,"94.40,69.70"
2024-05-28_13-31-59.261037,"58.15,73.39"
2024-05-28_13-31-59.289872,"51.98,80.87"
2024-05-28_13-31-59.322548,"86.66,70.97"
2024-05-28_13-31-59.355347,"74.55,77.32"
2024-05-28_13-31-59.388150,"76.01,67.56"
2024-05-28_13-31-59.420855,"91.78,60.99"
2024-05-28_13-31-59.453627,"67.43,63.42"
2024-05-28_13-31-59.486348,"57.90,63.22"
2024-05-28_13-31-59.515254,"63.84,73.83"
2024-05-28_13-31-59.547933,"59.77,65.02"
2024-05-28_13-31-59.580678,"58.95,75.83"
2024-05-28_13-31-59.613409,"52.35,71.61"
2024-05-28_13-31-59.646165,"71.96,69.57"
2024-05-28_13-31-59.679001,"53.78,73.91"
2024-05-28_13-31-59.711630,"68.91,75.07"
2024-05-28_13-31-59.740387,"80.75,75.69"
2024-05-28_13-31-59.773108,"76.01,76.75"
2024-05-28_13-31-59.805975,"80.87,66.01"
2024-05-28_13-31-59.838691,"83.36,34.28"
2024-05-28_13-31-59.871446,"81.15,62.70"
2024-05-28_13-31-59.904158,"66.13,64.04"
2024-05-28_13-31-59.936897,"51.80,71.07"
2024-05-28_13-31-59.965642,"63.32,66.34"
2024-05-28_13-31-59.998393,"48.43,69.70"
2024-05-28_13-32-00.031182,"70.08,77.20"
2024-05-28_13-32-00.063996,"54.70,71.23"
2024-05-28_13-32-00.096767,"51.83,73.63"
2024-05-28_13-32-00.129490,"87.60,71.15"
2024-05-28_13-32-00.162193,"71.80,79.65"
2024-05-28_13-32-00.190972,"74.68,59.75"
2024-05-28_13-32-00.223706,"62.63,67.45"
2024-05-28_13-32-00.256426,"70.02,62.18"
2024-05-28_13-32-00.289266,"61.07,49.05"
2024-05-28_13-32-00.322053,"53.56,74.99"
2024-05-28_13-32-00.354823,"53.06,70.93"
2024-05-28_13-32-00.387506,"60.92,66.77"
2024-05-28_13-32-00.416199,"68.74,71.82"
2024-05-28_13-32-00.449005,"59.80,68.74"
2024-05-28_13-32-00.481744,"51.63,83.44"
2024-05-28_13-32-00.514520,"83.14,69.66"
2024-05-28_13-32-00.547420,"64.98,69.80"
2024-05-28_13-32-00.580184,"82.16,58.82"
2024-05-28_13-32-00.612762,"95.59,46.29"
2024-05-28_13-32-00.641536,"79.89,59.24"
2024-05-28_13-32-00.674423,"65.34,60.56"
2024-05-28_13-32-00.707032,"57.38,64.85"
2024-05-28_13-32-00.739796,"46.34,68.82"
2024-05-28_13-32-00.772593,"62.03,75.69"
2024-05-28_13-32-00.805353,"78.19,69.68"
2024-05-28_13-32-00.838054,"56.25,73.47"
2024-05-28_13-32-00.870799,"56.19,82.62"
2024-05-28_13-32-00.899510,"100.62,83.07"
2024-05-28_13-32-00.932384,"75.88,76.31"
2024-05-28_13-32-00.965202,"72.97,64.97"
2024-05-28_13-32-00.997887,"85.37,38.04"
2024-05-28_13-32-01.030615,"89.79,62.20"
2024-05-28_13-32-01.063321,"73.21,49.54"
2024-05-28_13-32-01.096059,"49.33,72.40"
2024-05-28_13-32-01.124913,"57.68,65.57"
2024-05-28_13-32-01.157601,"53.09,70.71"
2024-05-28_13-32-01.190384,"82.52,69.07"
2024-05-28_13-32-01.223106,"73.57,81.46"
2024-05-28_13-32-01.256147,"49.94,74.71"
2024-05-28_13-32-01.288688,"78.73,84.61"
2024-05-28_13-32-01.321325,"73.80,76.95"
2024-05-28_13-32-01.350148,"81.53,67.66"
2024-05-28_13-32-01.382893,"88.71,60.86"
2024-05-28_13-32-01.415669,"67.47,65.39"
2024-05-28_13-32-01.448459,"63.87,46.50"
2024-05-28_13-32-01.481200,"55.70,72.21"
2024-05-28_13-32-01.513989,"59.48,75.07"
2024-05-28_13-32-01.546621,"58.31,67.29"
2024-05-28_13-32-01.575491,"53.49,71.14"
2024-05-28_13-32-01.608264,"78.79,69.48"
2024-05-28_13-32-01.641149,"49.81,72.81"
2024-05-28_13-32-01.673734,"68.71,84.59"
2024-05-28_13-32-01.706589,"81.20,66.43"
2024-05-28_13-32-01.739215,"75.85,75.80"
2024-05-28_13-32-01.772053,"86.88,48.21"
2024-05-28_13-32-01.800747,"79.81,39.05"
2024-05-28_13-32-01.833484,"84.36,60.65"
2024-05-28_13-32-01.866364,"47.70,64.04"
2024-05-28_13-32-01.899073,"51.79,70.74"
2024-05-28_13-32-01.931767,"61.49,65.88"
2024-05-28_13-32-01.964464,"56.67,75.89"
2024-05-28_13-32-01.997179,"62.81,72.39"
2024-05-28_13-32-02.026071,"58.12,70.26"
2024-05-28_13-32-02.058811,"57.07,80.81"
2024-05-28_13-32-02.091532,"100.38,65.66"
2024-05-28_13-32-02.124304,"62.40,79.24"
2024-05-28_13-32-02.157048,"81.03,42.05"
2024-05-28_13-32-02.189782,"99.31,46.98"
2024-05-28_13-32-02.222469,"36.71,74.90"
2024-05-28_13-32-02.251224,"71.53,65.18"
2024-05-28_13-32-02.284013,"54.86,65.01"
2024-05-28_13-32-02.316795,"52.30,70.58"
2024-05-28_13-32-02.349725,"62.30,66.88"
2024-05-28_13-32-02.382345,"73.94,70.58"
2024-05-28_13-32-02.415046,"55.14,78.62"
2024-05-28_13-32-02.447838,"50.19,81.34"
2024-05-28_13-32-02.476542,"93.02,77.87"
2024-05-28_13-32-02.509283,"82.69,72.39"
2024-05-28_13-32-02.542072,"81.36,63.40"
2024-05-28_13-32-02.574845,"87.09,40.84"
2024-05-28_13-32-02.614435,"80.73,42.18"
2024-05-28_13-32-02.643561,"73.31,50.79"
2024-05-28_13-32-02.678932,"53.94,64.71"
2024-05-28_13-32-02.704230,"55.44,74.99"
2024-05-28_13-32-02.734855,"53.18,70.89"
2024-05-28_13-32-02.767412,"70.30,67.94"
2024-05-28_13-32-02.800223,"63.34,72.88"
2024-05-28_13-32-02.832882,"53.85,69.86"
2024-05-28_13-32-02.865697,"77.44,89.68"
2024-05-28_13-32-02.898328,"77.01,78.38"
2024-05-28_13-32-02.927027,"69.23,67.55"
2024-05-28_13-32-02.959798,"83.44,57.30"
2024-05-28_13-32-02.992588,"97.91,46.47"
2024-05-28_13-32-03.025393,"60.67,64.17"
2024-05-28_13-32-03.058293,"70.94,59.74"
2024-05-28_13-32-03.092071,"58.72,65.45"
2024-05-28_13-32-03.123656,"47.87,69.24"
2024-05-28_13-32-03.152454,"60.73,76.66"
2024-05-28_13-32-03.185118,"63.66,69.60"
2024-05-28_13-32-03.217939,"80.58,66.20"
2024-05-28_13-32-03.250655,"56.79,79.11"
2024-05-28_13-32-03.283432,"85.22,86.61"
2024-05-28_13-32-03.316240,"76.00,76.09"
2024-05-28_13-32-03.348903,"74.44,45.32"
2024-05-28_13-32-03.377645,"88.39,39.03"
2024-05-28_13-32-03.410412,"65.16,69.78"
2024-05-28_13-32-03.443199,"64.35,73.90"
2024-05-28_13-32-03.475967,"51.34,71.86"
2024-05-28_13-32-03.508700,"58.50,65.61"
2024-05-28_13-32-03.541472,"54.38,70.68"
2024-05-28_13-32-03.574207,"68.86,68.53"
2024-05-28_13-32-03.602920,"54.06,79.95"
2024-05-28_13-32-03.635730,"51.85,73.70"
2024-05-28_13-32-03.668488,"103.15,76.68"
2024-05-28_13-32-03.701244,"71.68,74.87"
2024-05-28_13-32-03.733989,"85.20,66.53"
2024-05-28_13-32-03.766930,"94.55,40.29"
2024-05-28_13-32-03.799497,"75.98,62.54"
2024-05-28_13-32-03.828173,"71.19,47.38"
2024-05-28_13-32-03.861030,"44.05,69.99"
2024-05-28_13-32-03.893781,"61.56,75.55"
2024-05-28_13-32-03.926568,"58.63,66.63"
2024-05-28_13-32-03.959313,"52.68,71.57"
2024-05-28_13-32-03.992279,"69.20,69.66"
2024-05-28_13-32-04.024781,"50.36,84.66"
2024-05-28_13-32-04.053507,"83.83,72.61"
2024-05-28_13-32-04.086323,"60.98,70.63"
2024-05-28_13-32-04.119185,"77.87,60.02"
2024-05-28_13-32-04.151816,"98.12,47.20"
2024-05-28_13-32-04.184555,"51.25,63.13"
2024-05-28_13-32-04.217495,"50.13,74.23"
2024-05-28_13-32-04.250116,"54.86,64.47"
2024-05-28_13-32-04.282786,"52.67,70.43"
2024-05-28_13-32-04.311571,"63.78,66.67"
2024-05-28_13-32-04.344317,"73.86,77.17"
2024-05-28_13-32-04.377173,"49.31,74.49"
2024-05-28_13-32-04.409865,"54.19,73.56"
2024-05-28_13-32-04.442630,"81.64,68.19"
2024-05-28_13-32-04.475334,"76.29,70.16"
2024-05-28_13-32-04.508118,"82.09,62.52"
2024-05-28_13-32-04.536831,"90.66,41.34"
2024-05-28_13-32-04.569556,"69.12,62.99"
2024-05-28_13-32-04.602349,"60.71,56.46"
2024-05-28_13-32-04.635206,"56.35,74.63"
2024-05-28_13-32-04.667980,"56.44,66.45"
2024-05-28_13-32-04.700683,"53.55,70.97"
2024-05-28_13-32-04.733439,"78.52,69.56"
2024-05-28_13-32-04.762151,"49.77,72.47"
2024-05-28_13-32-04.794876,"69.52,85.20"
2024-05-28_13-32-04.827717,"79.93,65.23"
2024-05-28_13-32-04.860544,"73.59,74.97"
2024-05-28_13-32-04.893254,"86.24,66.44"
2024-05-28_13-32-04.936344,"78.58,38.60"
2024-05-28_13-32-04.982784,"83.07,60.12"
2024-05-28_13-32-04.996412,"63.09,64.92"
2024-05-28_13-32-05.021202,"51.65,71.38"
2024-05-28_13-32-05.052994,"60.38,65.46"
2024-05-28_13-32-05.085739,"57.35,76.21"
2024-05-28_13-32-05.118738,"63.98,74.02"
2024-05-28_13-32-05.151176,"60.56,69.52"
2024-05-28_13-32-05.183949,"55.96,76.64"
2024-05-28_13-32-05.212756,"88.74,82.13"
2024-05-28_13-32-05.245551,"66.96,73.57"
2024-05-28_13-32-05.278234,"79.50,76.47"
2024-05-28_13-32-05.311052,"95.19,46.29"
2024-05-28_13-32-05.343784,"73.28,55.81"
2024-05-28_13-32-05.376492,"66.80,62.06"
2024-05-28_13-32-05.409234,"53.97,65.02"
2024-05-28_13-32-05.438002,"53.36,70.66"
2024-05-28_13-32-05.470705,"63.17,66.83"
2024-05-28_13-32-05.503510,"59.41,70.42"
2024-05-28_13-32-05.536252,"57.84,79.53"
2024-05-28_13-32-05.569066,"50.09,82.53"
2024-05-28_13-32-05.601838,"89.12,78.53"
2024-05-28_13-32-05.634483,"68.98,71.50"
2024-05-28_13-32-05.663336,"82.92,62.52"
2024-05-28_13-32-05.696074,"87.25,41.27"
2024-05-28_13-32-05.728859,"67.99,65.09"
2024-05-28_13-32-05.761685,"75.31,60.61"
2024-05-28_13-32-05.794417,"56.22,64.55"
2024-05-28_13-32-05.827129,"55.99,75.62"
2024-05-28_13-32-05.859786,"55.46,71.89"
2024-05-28_13-32-05.888535,"66.30,66.92"
2024-05-28_13-32-05.921285,"57.69,72.75"
2024-05-28_13-32-05.954047,"51.56,71.25"
2024-05-28_13-32-05.986814,"81.94,82.63"
2024-05-28_13-32-06.020165,"72.76,77.10"
2024-05-28_13-32-06.052638,"79.04,66.93"
2024-05-28_13-32-06.085065,"89.75,34.55"
2024-05-28_13-32-06.113966,"80.96,51.50"
2024-05-28_13-32-06.146674,"65.03,49.17"
2024-05-28_13-32-06.179444,"51.61,71.28"
2024-05-28_13-32-06.212220,"59.65,65.28"
2024-05-28_13-32-06.244907,"46.95,71.15"
2024-05-28_13-32-06.277668,"91.30,81.64"
2024-05-28_13-32-06.310383,"53.51,69.56"
2024-05-28_13-32-06.339100,"52.33,74.45"
2024-05-28_13-32-06.371865,"86.75,72.87"
2024-05-28_13-32-06.404731,"70.89,79.54"
2024-05-28_13-32-06.437454,"80.17,42.36"
2024-05-28_13-32-06.470266,"96.01,44.79"
2024-05-28_13-32-06.502994,"75.70,59.38"
2024-05-28_13-32-06.535683,"70.63,47.62"
2024-05-28_13-32-06.564459,"52.73,75.58"
2024-05-28_13-32-06.597157,"51.04,71.71"
2024-05-28_13-32-06.629928,"57.96,65.46"
2024-05-28_13-32-06.662762,"54.20,71.26"
2024-05-28_13-32-06.695803,"66.90,70.31"
2024-05-28_13-32-06.747538,"49.22,79.84"
2024-05-28_13-32-06.761733,"93.21,77.70"
2024-05-28_13-32-06.794351,"80.64,68.12"
2024-05-28_13-32-06.824413,"77.33,57.87"
2024-05-28_13-32-06.859218,"92.93,47.82"
2024-05-28_13-32-06.952869,"79.20,38.50"
2024-05-28_13-32-06.966811,"73.63,51.50"
2024-05-28_13-32-06.969435,"55.29,64.85"
2024-05-28_13-32-06.994229,"44.97,69.58"
2024-05-28_13-32-07.019227,"62.50,75.82"
2024-05-28_13-32-07.047770,"70.54,67.94"
2024-05-28_13-32-07.081016,"59.26,74.08"
2024-05-28_13-32-07.113399,"57.08,71.00"
2024-05-28_13-32-07.146302,"78.42,78.11"
2024-05-28_13-32-07.178855,"80.23,77.32"
2024-05-28_13-32-07.211520,"70.78,65.93"
2024-05-28_13-32-07.244214,"84.09,38.89"
2024-05-28_13-32-07.273030,"87.34,66.98"
2024-05-28_13-32-07.305804,"62.39,66.46"
2024-05-28_13-32-07.338621,"50.80,71.66"
2024-05-28_13-32-07.371399,"56.98,64.58"
2024-05-28_13-32-07.404320,"53.55,71.22"
2024-05-28_13-32-07.436869,"61.37,66.76"
2024-05-28_13-32-07.469459,"60.91,78.39"
2024-05-28_13-32-07.498394,"50.17,75.45"
2024-05-28_13-32-07.531110,"78.84,86.45"
2024-05-28_13-32-07.563851,"72.54,76.52"
2024-05-28_13-32-07.596623,"81.27,67.49"
2024-05-28_13-32-07.629535,"89.33,61.43"
2024-05-28_13-32-07.662224,"91.49,60.49"
2024-05-28_13-32-07.694840,"64.84,48.29"
2024-05-28_13-32-07.723604,"43.04,70.97"
2024-05-28_13-32-07.756361,"59.61,74.66"
2024-05-28_13-32-07.789111,"57.68,67.57"
2024-05-28_13-32-07.821859,"54.53,71.97"
2024-05-28_13-32-07.854604,"73.17,68.44"
2024-05-28_13-32-07.887354,"48.97,72.37"
2024-05-28_13-32-07.920152,"68.63,84.57"
2024-05-28_13-32-07.948944,"79.30,64.23"
2024-05-28_13-32-07.981660,"74.19,75.48"
2024-05-28_13-32-08.014433,"91.11,48.81"
2024-05-28_13-32-08.047416,"80.25,38.47"
2024-05-28_13-32-08.082042,"84.09,59.92"
2024-05-28_13-32-08.112947,"49.20,65.39"
2024-05-28_13-32-08.145325,"50.41,70.27"
2024-05-28_13-32-08.174139,"60.68,64.92"
2024-05-28_13-32-08.206874,"57.94,76.90"
2024-05-28_13-32-08.239748,"62.31,73.76"
2024-05-28_13-32-08.272754,"54.17,68.96"
2024-05-28_13-32-08.305221,"85.73,101.34"
2024-05-28_13-32-08.337988,"101.57,67.77"
2024-05-28_13-32-08.370623,"61.08,78.55"
2024-05-28_13-32-08.399426,"82.27,43.03"
2024-05-28_13-32-08.432192,"102.37,46.92"
2024-05-28_13-32-08.464954,"71.22,53.44"
2024-05-28_13-32-08.497724,"66.36,62.01"
2024-05-28_13-32-08.530505,"52.66,65.46"
2024-05-28_13-32-08.563236,"52.39,71.08"
2024-05-28_13-32-08.595945,"60.52,65.81"
2024-05-28_13-32-08.624706,"60.40,70.22"
2024-05-28_13-32-08.657468,"55.53,80.35"
2024-05-28_13-32-08.690237,"50.41,80.43"
2024-05-28_13-32-08.723028,"99.15,78.75"
2024-05-28_13-32-08.755877,"69.01,71.87"
2024-05-28_13-32-08.788521,"79.20,62.26"
2024-05-28_13-32-08.821239,"87.93,41.34"
2024-05-28_13-32-08.850041,"66.85,67.88"
2024-05-28_13-32-08.882884,"71.35,61.26"
2024-05-28_13-32-08.916125,"56.73,64.58"
2024-05-28_13-32-08.948353,"56.03,75.69"
2024-05-28_13-32-08.982241,"54.18,71.71"
2024-05-28_13-32-09.013799,"67.72,67.06"
2024-05-28_13-32-09.046576,"57.42,73.69"
2024-05-28_13-32-09.075307,"51.05,70.04"
2024-05-28_13-32-09.108062,"92.68,82.21"
2024-05-28_13-32-09.140808,"73.36,77.08"
2024-05-28_13-32-09.173626,"78.15,67.22"
2024-05-28_13-32-09.206455,"89.90,35.04"
2024-05-28_13-32-09.239105,"80.66,66.21"
2024-05-28_13-32-09.271875,"74.14,48.81"
2024-05-28_13-32-09.327366,"50.45,75.81"
2024-05-28_13-32-09.334668,"60.30,64.80"
2024-05-28_13-32-09.367337,"47.90,70.65"
2024-05-28_13-32-09.398969,"72.69,77.41"
2024-05-28_13-32-09.431655,"57.00,69.70"
2024-05-28_13-32-09.464510,"51.40,75.37"
2024-05-28_13-32-09.497098,"90.54,69.24"
2024-05-28_13-32-09.525890,"70.36,80.09"
2024-05-28_13-32-09.558665,"78.92,76.37"
2024-05-28_13-32-09.591436,"92.69,44.07"
2024-05-28_13-32-09.624210,"77.23,56.57"
2024-05-28_13-32-09.657348,"67.18,47.60"
2024-05-28_13-32-09.689800,"51.31,76.30"
2024-05-28_13-32-09.722392,"51.46,70.55"
2024-05-28_13-32-09.751129,"58.76,66.92"
2024-05-28_13-32-09.784062,"70.85,72.37"
2024-05-28_13-32-09.816741,"60.93,68.70"
2024-05-28_13-32-09.849450,"52.67,84.25"
2024-05-28_13-32-09.882203,"93.19,71.07"
2024-05-28_13-32-09.915015,"65.56,69.60"
2024-05-28_13-32-09.947697,"81.56,58.13"
2024-05-28_13-32-09.980394,"88.96,47.72"
2024-05-28_13-32-10.009161,"62.20,60.24"
2024-05-28_13-32-10.041993,"68.22,59.70"
2024-05-28_13-32-10.074792,"59.67,66.13"
2024-05-28_13-32-10.109487,"47.28,68.94"
2024-05-28_13-32-10.140229,"61.06,75.45"
2024-05-28_13-32-10.172938,"65.99,69.05"
2024-05-28_13-32-10.205691,"51.52,74.26"
2024-05-28_13-32-10.234510,"56.27,69.33"
2024-05-28_13-32-10.267227,"85.69,88.11"
2024-05-28_13-32-10.300039,"70.11,73.69"
2024-05-28_13-32-10.332758,"72.85,68.87"
2024-05-28_13-32-10.365543,"87.34,60.47"
2024-05-28_13-32-10.398259,"64.95,77.15"
2024-05-28_13-32-10.430937,"62.29,59.37"
2024-05-28_13-32-10.459762,"52.02,71.99"
2024-05-28_13-32-10.492505,"57.53,65.02"
2024-05-28_13-32-10.525271,"53.55,71.65"
2024-05-28_13-32-10.558056,"67.97,66.87"
2024-05-28_13-32-10.590845,"51.27,79.52"
2024-05-28_13-32-10.623549,"51.55,75.11"
2024-05-28_13-32-10.656242,"103.45,75.40"
2024-05-28_13-32-10.685017,"71.55,74.74"
2024-05-28_13-32-10.717840,"85.68,48.33"
2024-05-28_13-32-10.750572,"85.61,39.74"
2024-05-28_13-32-10.783298,"70.96,67.97"
2024-05-28_13-32-10.816084,"51.10,65.92"
2024-05-28_13-32-10.848843,"45.15,69.59"
2024-05-28_13-32-10.881540,"60.59,75.32"
2024-05-28_13-32-10.910281,"56.65,68.76"
2024-05-28_13-32-10.943111,"65.79,72.72"
2024-05-28_13-32-10.975874,"60.15,69.55"
2024-05-28_13-32-11.008591,"67.37,82.76"
2024-05-28_13-32-11.041402,"86.74,79.61"
2024-05-28_13-32-11.074751,"65.05,65.87"
2024-05-28_13-32-11.107092,"82.13,38.60"
2024-05-28_13-32-11.135806,"86.49,50.94"
2024-05-28_13-32-11.168360,"57.82,58.66"
2024-05-28_13-32-11.201197,"51.33,73.46"
2024-05-28_13-32-11.233943,"56.25,65.34"
2024-05-28_13-32-11.266671,"52.99,70.38"
2024-05-28_13-32-11.299459,"61.27,67.17"
2024-05-28_13-32-11.332142,"85.80,81.30"
2024-05-28_13-32-11.360856,"46.78,74.75"
2024-05-28_13-32-11.393642,"71.30,72.87"
2024-05-28_13-32-11.426396,"89.25,75.67"
2024-05-28_13-32-11.459180,"77.69,69.43"
2024-05-28_13-32-11.491945,"83.53,61.36"
2024-05-28_13-32-11.524840,"92.08,41.37"
2024-05-28_13-32-11.557448,"67.60,69.17"
2024-05-28_13-32-11.586131,"49.40,56.34"
2024-05-28_13-32-11.618947,"57.55,74.78"
2024-05-28_13-32-11.651711,"58.53,67.33"
2024-05-28_13-32-11.684506,"53.32,71.30"
2024-05-28_13-32-11.717646,"76.14,69.61"
2024-05-28_13-32-11.750023,"50.06,73.07"
2024-05-28_13-32-11.782674,"68.80,86.51"
2024-05-28_13-32-11.811444,"79.71,64.93"
2024-05-28_13-32-11.844195,"77.14,60.59"
2024-05-28_13-32-11.876958,"90.17,48.02"
2024-05-28_13-32-11.909729,"81.35,39.24"
2024-05-28_13-32-11.942485,"74.72,63.66"
2024-05-28_13-32-11.975251,"50.25,63.97"
2024-05-28_13-32-12.008041,"52.98,70.21"
2024-05-28_13-32-12.036688,"64.42,66.00"
2024-05-28_13-32-12.069457,"66.14,76.86"
2024-05-28_13-32-12.102247,"54.59,72.89"
2024-05-28_13-32-12.135025,"52.39,70.66"
2024-05-28_13-32-12.167767,"78.59,76.14"
2024-05-28_13-32-12.200539,"80.78,66.83"
2024-05-28_13-32-12.233295,"74.81,77.79"
2024-05-28_13-32-12.262028,"86.30,41.35"
2024-05-28_13-32-12.294801,"84.88,45.87"
2024-05-28_13-32-12.327526,"42.16,74.12"
2024-05-28_13-32-12.360281,"59.45,75.30"
2024-05-28_13-32-12.393065,"54.80,65.93"
2024-05-28_13-32-12.425878,"53.36,70.79"
2024-05-28_13-32-12.459787,"72.05,66.79"
2024-05-28_13-32-12.498579,"55.27,73.20"
2024-05-28_13-32-12.521168,"50.49,80.26"
2024-05-28_13-32-12.553305,"83.29,70.69"
2024-05-28_13-32-12.585643,"73.38,76.46"
2024-05-28_13-32-12.618394,"78.56,49.07"
2024-05-28_13-32-12.651190,"98.10,40.31"
2024-05-28_13-32-12.683856,"75.43,66.61"
2024-05-28_13-32-12.716529,"54.03,46.39"
2024-05-28_13-32-12.745391,"51.52,70.95"
2024-05-28_13-32-12.778078,"59.94,66.26"
2024-05-28_13-32-12.810934,"57.91,76.22"
2024-05-28_13-32-12.843668,"64.27,72.49"
2024-05-28_13-32-12.876405,"56.92,70.48"
2024-05-28_13-32-12.909169,"57.42,81.26"
2024-05-28_13-32-12.941811,"101.66,58.60"
2024-05-28_13-32-12.970595,"61.58,78.57"
2024-05-28_13-32-13.003357,"81.75,62.09"
2024-05-28_13-32-13.036189,"89.77,46.53"
2024-05-28_13-32-13.068953,"67.91,42.64"
2024-05-28_13-32-13.101800,"73.43,62.90"
2024-05-28_13-32-13.134418,"55.08,65.43"
2024-05-28_13-32-13.167090,"52.46,71.23"
2024-05-28_13-32-13.196333,"62.07,67.00"
2024-05-28_13-32-13.228712,"66.75,70.73"
2024-05-28_13-32-13.261456,"51.33,80.59"
2024-05-28_13-32-13.294195,"82.47,73.84"
2024-05-28_13-32-13.326956,"92.37,77.35"
2024-05-28_13-32-13.359743,"61.48,71.50"
2024-05-28_13-32-13.392454,"93.46,78.06"
2024-05-28_13-32-13.421161,"90.19,40.95"
2024-05-28_13-32-13.453940,"63.11,60.48"
2024-05-28_13-32-13.486704,"68.07,58.70"
2024-05-28_13-32-13.519505,"59.61,65.26"
2024-05-28_13-32-13.552237,"56.16,74.94"
2024-05-28_13-32-13.584965,"53.39,72.31"
2024-05-28_13-32-13.617680,"66.32,67.96"
2024-05-28_13-32-13.646533,"54.74,73.01"
2024-05-28_13-32-13.679472,"69.07,79.52"
2024-05-28_13-32-13.712036,"83.87,74.78"
2024-05-28_13-32-13.744831,"74.03,76.58"
2024-05-28_13-32-13.777575,"83.04,66.13"
2024-05-28_13-32-13.810331,"85.77,34.81"
2024-05-28_13-32-13.842975,"81.71,62.83"
2024-05-28_13-32-13.872260,"50.47,64.45"
2024-05-28_13-32-13.904714,"53.70,71.24"
2024-05-28_13-32-13.941299,"60.28,65.83"
2024-05-28_13-32-13.970105,"49.14,69.87"
2024-05-28_13-32-14.002888,"70.86,78.28"
2024-05-28_13-32-14.035558,"51.96,70.23"
2024-05-28_13-32-14.068358,"69.35,82.94"
2024-05-28_13-32-14.097107,"92.59,78.94"
2024-05-28_13-32-14.129954,"75.86,63.25"
2024-05-28_13-32-14.162586,"82.75,41.81"
2024-05-28_13-32-14.195449,"78.13,43.68"
2024-05-28_13-32-14.228156,"83.44,57.33"
2024-05-28_13-32-14.260832,"52.37,64.79"
2024-05-28_13-32-14.293546,"56.55,75.92"
2024-05-28_13-32-14.322586,"52.00,71.66"
2024-05-28_13-32-14.355157,"68.74,66.29"
2024-05-28_13-32-14.387941,"78.75,76.30"
2024-05-28_13-32-14.420651,"50.30,71.05"
2024-05-28_13-32-14.454246,"83.37,79.31"
2024-05-28_13-32-14.486280,"73.02,77.56"
2024-05-28_13-32-14.520025,"78.02,50.06"
2024-05-28_13-32-14.547632,"90.44,34.72"
2024-05-28_13-32-14.580382,"79.24,64.82"
2024-05-28_13-32-14.613309,"62.78,48.54"
2024-05-28_13-32-14.645923,"51.04,71.54"
2024-05-28_13-32-14.678651,"59.96,65.49"
2024-05-28_13-32-14.711424,"48.22,69.56"
2024-05-28_13-32-14.744142,"72.38,78.59"
2024-05-28_13-32-14.772852,"56.36,70.67"
2024-05-28_13-32-14.805640,"51.99,74.30"
2024-05-28_13-32-14.838472,"87.61,71.47"
2024-05-28_13-32-14.871182,"72.07,78.20"
2024-05-28_13-32-14.903986,"81.62,61.21"
2024-05-28_13-32-14.936723,"96.16,42.82"
2024-05-28_13-32-14.969603,"73.31,52.72"
2024-05-28_13-32-14.998211,"63.25,66.30"
2024-05-28_13-32-15.030946,"52.96,75.62"
2024-05-28_13-32-15.063720,"53.15,71.44"
2024-05-28_13-32-15.096614,"57.89,66.00"
2024-05-28_13-32-15.129509,"63.18,73.23"
2024-05-28_13-32-15.162039,"52.64,70.67"
2024-05-28_13-32-15.194717,"89.70,89.71"
2024-05-28_13-32-15.223615,"74.97,77.85"
2024-05-28_13-32-15.256362,"73.74,67.30"
2024-05-28_13-32-15.288981,"88.24,35.29"
2024-05-28_13-32-15.321760,"79.06,55.38"
2024-05-28_13-32-15.354518,"73.57,53.18"
2024-05-28_13-32-15.387269,"49.93,74.50"
2024-05-28_13-32-15.420014,"58.58,65.51"
2024-05-28_13-32-15.448721,"47.20,70.31"
2024-05-28_13-32-15.481465,"75.77,77.24"
2024-05-28_13-32-15.514256,"58.31,69.64"
2024-05-28_13-32-15.547084,"51.15,75.22"
2024-05-28_13-32-15.579863,"89.10,70.57"
2024-05-28_13-32-15.612588,"70.92,79.27"
2024-05-28_13-32-15.645260,"80.45,41.48"
2024-05-28_13-32-15.677985,"95.94,43.77"
2024-05-28_13-32-15.706756,"75.02,61.01"
2024-05-28_13-32-15.739539,"73.60,47.47"
2024-05-28_13-32-15.772307,"52.71,76.26"
2024-05-28_13-32-15.805101,"51.64,70.78"
2024-05-28_13-32-15.837865,"58.14,67.06"
2024-05-28_13-32-15.870595,"69.38,72.60"
2024-05-28_13-32-15.899336,"57.77,68.88"
2024-05-28_13-32-15.932095,"52.69,83.78"
2024-05-28_13-32-15.964833,"92.78,71.83"
2024-05-28_13-32-15.997704,"65.92,68.96"
2024-05-28_13-32-16.030414,"83.73,57.97"
2024-05-28_13-32-16.063086,"77.87,47.33"
2024-05-28_13-32-16.095859,"60.29,65.55"
2024-05-28_13-32-16.128598,"58.74,59.73"
2024-05-28_13-32-16.157378,"59.73,65.87"
2024-05-28_13-32-16.190106,"46.98,68.98"
2024-05-28_13-32-16.223030,"60.96,75.80"
2024-05-28_13-32-16.255702,"70.55,69.62"
2024-05-28_13-32-16.288366,"49.08,74.59"
2024-05-28_13-32-16.321096,"87.17,72.33"
2024-05-28_13-32-16.353830,"86.77,82.04"
2024-05-28_13-32-16.382625,"71.20,74.90"
2024-05-28_13-32-16.415373,"71.16,68.02"
2024-05-28_13-32-16.448141,"77.22,63.43"
2024-05-28_13-32-16.480963,"64.74,46.87"
2024-05-28_13-32-16.513657,"63.51,76.47"
2024-05-28_13-32-16.546409,"51.79,71.29"
2024-05-28_13-32-16.579105,"58.37,65.42"
2024-05-28_13-32-16.607897,"54.12,73.15"
2024-05-28_13-32-16.640713,"64.94,68.10"
2024-05-28_13-32-16.673450,"50.54,85.82"
2024-05-28_13-32-16.706203,"85.77,68.21"
2024-05-28_13-32-16.739028,"65.51,70.24"
2024-05-28_13-32-16.771718,"82.14,57.91"
2024-05-28_13-32-16.804369,"97.56,46.12"
2024-05-28_13-32-16.833352,"62.23,60.80"
2024-05-28_13-32-16.866030,"58.06,59.88"
2024-05-28_13-32-16.898775,"57.49,65.38"
2024-05-28_13-32-16.931475,"47.44,69.80"
2024-05-28_13-32-16.964353,"60.90,76.03"
2024-05-28_13-32-16.997005,"69.57,70.41"
2024-05-28_13-32-17.029701,"49.91,74.39"
2024-05-28_13-32-17.058475,"82.92,73.32"
2024-05-28_13-32-17.091238,"73.34,81.18"
2024-05-28_13-32-17.123978,"77.86,61.11"
2024-05-28_13-32-17.156779,"90.96,44.31"
2024-05-28_13-32-17.189549,"76.37,57.77"
2024-05-28_13-32-17.222311,"68.80,47.47"
2024-05-28_13-32-17.255075,"53.12,75.80"
2024-05-28_13-32-17.283791,"51.78,71.95"
2024-05-28_13-32-17.316517,"58.98,66.50"
2024-05-28_13-32-17.349249,"65.87,71.81"
2024-05-28_13-32-17.382064,"59.40,69.92"
2024-05-28_13-32-17.414842,"88.26,87.09"
2024-05-28_13-32-17.447561,"74.42,67.51"
2024-05-28_13-32-17.480332,"69.87,68.37"
2024-05-28_13-32-17.509957,"88.00,35.70"
2024-05-28_13-32-17.542121,"79.25,54.91"
2024-05-28_13-32-17.574575,"72.30,52.88"
2024-05-28_13-32-17.607395,"50.87,72.67"
2024-05-28_13-32-17.640089,"60.14,66.13"
2024-05-28_13-32-17.672898,"46.65,69.41"
2024-05-28_13-32-17.705582,"60.79,77.50"
2024-05-28_13-32-17.734316,"58.87,71.02"
2024-05-28_13-32-17.767045,"51.42,73.94"
2024-05-28_13-32-17.799858,"77.86,68.90"
2024-05-28_13-32-17.832618,"70.61,80.97"
2024-05-28_13-32-17.865422,"79.11,61.38"
2024-05-28_13-32-17.898166,"93.23,43.68"
2024-05-28_13-32-17.930814,"76.43,57.67"
2024-05-28_13-32-17.959566,"70.18,47.44"
2024-05-28_13-32-17.992391,"52.73,75.92"
2024-05-28_13-32-18.025137,"53.08,71.77"
2024-05-28_13-32-18.057947,"59.11,65.34"
2024-05-28_13-32-18.090747,"67.00,71.72"
2024-05-28_13-32-18.123438,"58.55,70.09"
2024-05-28_13-32-18.156128,"69.36,82.73"
2024-05-28_13-32-18.184893,"89.77,78.95"
2024-05-28_13-32-18.217771,"71.70,68.05"
2024-05-28_13-32-18.250446,"84.80,35.30"
2024-05-28_13-32-18.283166,"90.26,55.96"
2024-05-28_13-32-18.315979,"59.46,56.91"
2024-05-28_13-32-18.349429,"50.96,72.47"
2024-05-28_13-32-18.382733,"59.49,65.12"
2024-05-28_13-32-18.410213,"48.04,69.49"
2024-05-28_13-32-18.443059,"95.69,81.32"
2024-05-28_13-32-18.475940,"56.08,68.90"
2024-05-28_13-32-18.508504,"51.37,74.49"
2024-05-28_13-32-18.541243,"89.69,70.09"
2024-05-28_13-32-18.574003,"71.70,79.53"
2024-05-28_13-32-18.606712,"79.36,62.02"
2024-05-28_13-32-18.639422,"97.77,43.94"
2024-05-28_13-32-18.668206,"73.36,51.25"
2024-05-28_13-32-18.701045,"62.43,48.55"
2024-05-28_13-32-18.733766,"53.61,75.47"
2024-05-28_13-32-18.766520,"51.57,71.96"
2024-05-28_13-32-18.799267,"56.73,65.95"
2024-05-28_13-32-18.832040,"64.40,71.99"
2024-05-28_13-32-18.864684,"56.44,71.28"
2024-05-28_13-32-18.893490,"74.03,83.58"
2024-05-28_13-32-18.926261,"73.76,78.43"
2024-05-28_13-32-18.959054,"74.22,48.74"
2024-05-28_13-32-18.991808,"89.91,34.82"
2024-05-28_13-32-19.024561,"80.72,64.88"
2024-05-28_13-32-19.057319,"60.74,48.80"
2024-05-28_13-32-19.090001,"51.43,72.08"
2024-05-28_13-32-19.119148,"60.46,65.70"
2024-05-28_13-32-19.151580,"48.76,70.80"
2024-05-28_13-32-19.184325,"69.20,77.91"
2024-05-28_13-32-19.217080,"53.51,70.48"
2024-05-28_13-32-19.249853,"52.24,83.11"
2024-05-28_13-32-19.282612,"88.88,63.86"
2024-05-28_13-32-19.315341,"76.17,77.47"
2024-05-28_13-32-19.344028,"83.50,40.78"
2024-05-28_13-32-19.376924,"79.49,43.50"
2024-05-28_13-32-19.409587,"82.05,61.85"
2024-05-28_13-32-19.442336,"54.88,64.67"
2024-05-28_13-32-19.475124,"55.39,77.22"
2024-05-28_13-32-19.507832,"52.93,74.68"
2024-05-28_13-32-19.540564,"69.28,66.30"
2024-05-28_13-32-19.569310,"61.19,74.00"
2024-05-28_13-32-19.602126,"52.45,70.98"
2024-05-28_13-32-19.634851,"81.72,81.53"
2024-05-28_13-32-19.667671,"73.25,77.02"
2024-05-28_13-32-19.700447,"80.96,48.97"
2024-05-28_13-32-19.733237,"93.52,34.63"
2024-05-28_13-32-19.765889,"79.86,64.72"
2024-05-28_13-32-19.794634,"53.31,64.25"
2024-05-28_13-32-19.827405,"51.74,70.63"
2024-05-28_13-32-19.860156,"61.77,66.78"
2024-05-28_13-32-19.892979,"67.47,70.16"
2024-05-28_13-32-19.925732,"66.77,77.37"
2024-05-28_13-32-19.958547,"49.51,72.53"
2024-05-28_13-32-19.991211,"69.09,77.22"
2024-05-28_13-32-20.019910,"84.04,66.14"
2024-05-28_13-32-20.052658,"79.25,77.36"
2024-05-28_13-32-20.085447,"88.43,41.74"
2024-05-28_13-32-20.118217,"67.37,42.20"
2024-05-28_13-32-20.151051,"75.77,56.21"
2024-05-28_13-32-20.183706,"56.46,65.58"
2024-05-28_13-32-20.216457,"57.57,75.11"
2024-05-28_13-32-20.245223,"53.13,71.27"
2024-05-28_13-32-20.278025,"65.35,68.45"
2024-05-28_13-32-20.310732,"54.02,72.90"
2024-05-28_13-32-20.343559,"68.35,74.46"
2024-05-28_13-32-20.376294,"77.12,78.22"
2024-05-28_13-32-20.409040,"76.00,61.45"
2024-05-28_13-32-20.441676,"86.69,47.53"
2024-05-28_13-32-20.470468,"81.67,56.63"
2024-05-28_13-32-20.503232,"68.75,81.70"
2024-05-28_13-32-20.536018,"53.67,64.08"
2024-05-28_13-32-20.568843,"53.10,70.25"
2024-05-28_13-32-20.601604,"63.56,66.51"
2024-05-28_13-32-20.634499,"61.94,70.12"
2024-05-28_13-32-20.667023,"58.21,78.28"
2024-05-28_13-32-20.695769,"50.40,70.41"
2024-05-28_13-32-20.728492,"88.77,78.94"
2024-05-28_13-32-20.761339,"68.99,71.86"
2024-05-28_13-32-20.794028,"85.58,62.59"
2024-05-28_13-32-20.826826,"90.22,40.72"
2024-05-28_13-32-20.859598,"63.56,61.52"
2024-05-28_13-32-20.892349,"68.48,58.71"
2024-05-28_13-32-20.921027,"57.02,64.66"
2024-05-28_13-32-20.953787,"56.88,75.03"
2024-05-28_13-32-20.986563,"51.40,71.80"
2024-05-28_13-32-21.019320,"65.31,69.44"
2024-05-28_13-32-21.052161,"55.73,76.72"
2024-05-28_13-32-21.084883,"94.60,68.74"
2024-05-28_13-32-21.117620,"60.54,79.85"
2024-05-28_13-32-21.146320,"79.75,61.51"
2024-05-28_13-32-21.179216,"89.59,46.73"
2024-05-28_13-32-21.211911,"67.10,45.00"
2024-05-28_13-32-21.244648,"62.47,62.41"
2024-05-28_13-32-21.281168,"53.42,65.83"
2024-05-28_13-32-21.310240,"52.92,72.01"
2024-05-28_13-32-21.342896,"75.35,67.18"
2024-05-28_13-32-21.376290,"57.83,71.42"
2024-05-28_13-32-21.404437,"51.13,81.62"
2024-05-28_13-32-21.437220,"82.86,71.26"
2024-05-28_13-32-21.469909,"64.64,73.86"
2024-05-28_13-32-21.502911,"78.76,69.60"
2024-05-28_13-32-21.535665,"81.74,42.73"
2024-05-28_13-32-21.568144,"70.52,66.06"
2024-05-28_13-32-21.600859,"44.72,64.46"
2024-05-28_13-32-21.629645,"52.60,70.72"
2024-05-28_13-32-21.662440,"61.57,65.62"
2024-05-28_13-32-21.695204,"71.24,76.22"
2024-05-28_13-32-21.727981,"59.80,74.78"
2024-05-28_13-32-21.760723,"52.36,70.79"
2024-05-28_13-32-21.793502,"79.83,76.20"
2024-05-28_13-32-21.826150,"78.58,70.81"
2024-05-28_13-32-21.855245,"77.21,62.50"
2024-05-28_13-32-21.887819,"89.02,41.48"
2024-05-28_13-32-21.920510,"72.45,62.82"
2024-05-28_13-32-21.953383,"59.33,56.96"
2024-05-28_13-32-21.986007,"56.80,74.59"
2024-05-28_13-32-22.018731,"57.04,66.93"
2024-05-28_13-32-22.051460,"54.21,71.81"
2024-05-28_13-32-22.080185,"77.31,67.92"
2024-05-28_13-32-22.112982,"48.20,73.12"
2024-05-28_13-32-22.145775,"68.70,84.81"
2024-05-28_13-32-22.178787,"76.31,67.56"
2024-05-28_13-32-22.211392,"75.97,60.26"
2024-05-28_13-32-22.244034,"95.28,48.18"
2024-05-28_13-32-22.276738,"68.27,65.33"
2024-05-28_13-32-22.305510,"75.48,77.06"
2024-05-28_13-32-22.338273,"52.53,64.92"
2024-05-28_13-32-22.371039,"52.45,70.29"
2024-05-28_13-32-22.403794,"61.33,65.84"
2024-05-28_13-32-22.436544,"65.05,78.33"
2024-05-28_13-32-22.469302,"50.90,73.53"
2024-05-28_13-32-22.502043,"54.99,73.49"
2024-05-28_13-32-22.530827,"66.24,76.88"
2024-05-28_13-32-22.563680,"82.49,73.81"
2024-05-28_13-32-22.596520,"83.59,61.65"
2024-05-28_13-32-22.629227,"80.84,41.52"
2024-05-28_13-32-22.662135,"66.71,55.53"
2024-05-28_13-32-22.694625,"49.71,56.11"
2024-05-28_13-32-22.727299,"57.61,74.71"
2024-05-28_13-32-22.756128,"60.07,67.43"
2024-05-28_13-32-22.788883,"53.02,71.41"
2024-05-28_13-32-22.821635,"66.45,68.92"
2024-05-28_13-32-22.854426,"50.57,84.23"
2024-05-28_13-32-22.887171,"88.09,82.11"
2024-05-28_13-32-22.919856,"62.30,69.91"
2024-05-28_13-32-22.952609,"82.95,60.88"
2024-05-28_13-32-22.981391,"103.97,46.01"
2024-05-28_13-32-23.014103,"61.95,64.21"
2024-05-28_13-32-23.046958,"64.17,60.98"
2024-05-28_13-32-23.079741,"52.97,64.49"
2024-05-28_13-32-23.112472,"51.20,70.33"
2024-05-28_13-32-23.145237,"61.62,65.69"
2024-05-28_13-32-23.177923,"62.94,79.93"
2024-05-28_13-32-23.206599,"50.26,74.76"
2024-05-28_13-32-23.239366,"89.27,71.83"
2024-05-28_13-32-23.272153,"72.18,75.84"
2024-05-28_13-32-23.304943,"81.63,67.11"
2024-05-28_13-32-23.337713,"92.84,41.01"
2024-05-28_13-32-23.370459,"76.08,63.25"
2024-05-28_13-32-23.403153,"58.39,47.60"
2024-05-28_13-32-23.431890,"43.24,69.78"
2024-05-28_13-32-23.464728,"59.10,76.52"
2024-05-28_13-32-23.497514,"58.10,67.49"
2024-05-28_13-32-23.530247,"87.02,74.59"
2024-05-28_13-32-23.563026,"68.72,60.05"
2024-05-28_13-32-23.595770,"78.91,79.95"
2024-05-28_13-32-23.628437,"80.79,77.77"
2024-05-28_13-32-23.657275,"70.90,65.11"
2024-05-28_13-32-23.690015,"86.53,38.26"
2024-05-28_13-32-23.722723,"80.24,45.95"
2024-05-28_13-32-23.755480,"67.49,74.02"
2024-05-28_13-32-23.788384,"51.59,71.96"
2024-05-28_13-32-23.821061,"59.17,65.97"
2024-05-28_13-32-23.853726,"54.67,70.89"
2024-05-28_13-32-23.882453,"78.60,68.87"
2024-05-28_13-32-23.915237,"50.26,80.74"
2024-05-28_13-32-23.948016,"69.22,77.83"
2024-05-28_13-32-23.980743,"81.63,66.75"
2024-05-28_13-32-24.013607,"78.11,58.56"
2024-05-28_13-32-24.046318,"93.51,47.59"
2024-05-28_13-32-24.079034,"66.93,61.67"
2024-05-28_13-32-24.107797,"65.18,60.72"
2024-05-28_13-32-24.140552,"58.13,65.06"
2024-05-28_13-32-24.173355,"46.97,70.18"
2024-05-28_13-32-24.206069,"61.15,76.77"
2024-05-28_13-32-24.238842,"68.02,69.21"
2024-05-28_13-32-24.271618,"50.50,74.83"
2024-05-28_13-32-24.304379,"93.41,84.06"
2024-05-28_13-32-24.337007,"72.27,80.14"
2024-05-28_13-32-24.365881,"78.14,61.14"
2024-05-28_13-32-24.398569,"83.72,44.12"
2024-05-28_13-32-24.431592,"74.73,61.61"
2024-05-28_13-32-24.464161,"60.21,47.62"
2024-05-28_13-32-24.496907,"54.75,76.24"
2024-05-28_13-32-24.529604,"52.14,71.01"
2024-05-28_13-32-24.562318,"74.58,66.54"
2024-05-28_13-32-24.591062,"81.78,77.73"
2024-05-28_13-32-24.623850,"55.61,70.55"
2024-05-28_13-32-24.656668,"73.78,82.06"
2024-05-28_13-32-24.689400,"73.66,77.78"
2024-05-28_13-32-24.722192,"77.11,67.42"
2024-05-28_13-32-24.754878,"91.61,34.96"
2024-05-28_13-32-24.787577,"66.63,78.34"
2024-05-28_13-32-24.816378,"54.71,63.99"
2024-05-28_13-32-24.849282,"51.61,70.52"
2024-05-28_13-32-24.881950,"61.88,65.94"
2024-05-28_13-32-24.914675,"64.93,71.07"
2024-05-28_13-32-24.947592,"60.04,78.19"
2024-05-28_13-32-24.980217,"50.26,69.93"
2024-05-28_13-32-25.012924,"92.99,77.46"
2024-05-28_13-32-25.041681,"70.60,71.70"
2024-05-28_13-32-25.074520,"83.49,62.41"
2024-05-28_13-32-25.107264,"80.59,42.01"
2024-05-28_13-32-25.140061,"64.48,59.76"
2024-05-28_13-32-25.172790,"68.89,58.38"
2024-05-28_13-32-25.205494,"59.27,65.47"
2024-05-28_13-32-25.238190,"56.86,75.38"
2024-05-28_13-32-25.266949,"52.38,71.61"
2024-05-28_13-32-25.302495,"67.02,68.32"
2024-05-28_13-32-25.332578,"54.38,76.52"
2024-05-28_13-32-25.365268,"88.75,81.78"
2024-05-28_13-32-25.398041,"62.10,81.42"
2024-05-28_13-32-25.430760,"79.08,61.60"
2024-05-28_13-32-25.463498,"96.93,46.62"
2024-05-28_13-32-25.492258,"69.18,55.13"
2024-05-28_13-32-25.525033,"58.63,61.89"
2024-05-28_13-32-25.557794,"51.55,65.28"
2024-05-28_13-32-25.590503,"53.06,74.44"
2024-05-28_13-32-25.623375,"74.99,66.21"
2024-05-28_13-32-25.656383,"63.04,73.44"
2024-05-28_13-32-25.689034,"51.69,80.42"
2024-05-28_13-32-25.717677,"84.46,68.40"
2024-05-28_13-32-25.750364,"73.02,76.45"
2024-05-28_13-32-25.783092,"81.69,66.55"
2024-05-28_13-32-25.815836,"90.43,39.75"
2024-05-28_13-32-25.848798,"86.12,61.68"
2024-05-28_13-32-25.881983,"47.82,64.33"
2024-05-28_13-32-25.914477,"51.89,70.32"
2024-05-28_13-32-25.942919,"60.87,66.73"
2024-05-28_13-32-25.975618,"67.37,77.58"
2024-05-28_13-32-26.008370,"53.69,73.33"
2024-05-28_13-32-26.041115,"52.80,81.87"
2024-05-28_13-32-26.073839,"98.99,78.84"
2024-05-28_13-32-26.106604,"76.65,71.14"
2024-05-28_13-32-26.139340,"78.70,61.32"
2024-05-28_13-32-26.168107,"90.82,42.28"
2024-05-28_13-32-26.201071,"67.36,67.85"
2024-05-28_13-32-26.233676,"66.78,56.33"
2024-05-28_13-32-26.266539,"58.80,75.41"
2024-05-28_13-32-26.299301,"57.17,66.48"
2024-05-28_13-32-26.331952,"52.69,72.50"
2024-05-28_13-32-26.364627,"66.82,69.81"
2024-05-28_13-32-26.393444,"51.28,81.16"
2024-05-28_13-32-26.426279,"92.60,73.96"
2024-05-28_13-32-26.458954,"63.35,68.28"
2024-05-28_13-32-26.491659,"81.95,39.05"
2024-05-28_13-32-26.524523,"87.78,57.19"
2024-05-28_13-32-26.557248,"76.76,50.31"
2024-05-28_13-32-26.589897,"51.13,75.46"
2024-05-28_13-32-26.618662,"56.48,64.19"
2024-05-28_13-32-26.651492,"54.81,71.96"
2024-05-28_13-32-26.684370,"65.69,68.24"
2024-05-28_13-32-26.717170,"48.65,79.70"
2024-05-28_13-32-26.749783,"69.02,79.03"
2024-05-28_13-32-26.782531,"81.09,67.39"
2024-05-28_13-32-26.815222,"77.82,58.12"
2024-05-28_13-32-26.844071,"95.35,46.81"
2024-05-28_13-32-26.877183,"65.85,58.77"
2024-05-28_13-32-26.909559,"67.11,60.16"
2024-05-28_13-32-26.942260,"58.64,65.18"
2024-05-28_13-32-26.975071,"49.83,69.97"
2024-05-28_13-32-27.007857,"60.33,76.07"
2024-05-28_13-32-27.040521,"65.69,69.59"
2024-05-28_13-32-27.069232,"51.07,74.34"
2024-05-28_13-32-27.102037,"89.54,69.94"
2024-05-28_13-32-27.135110,"72.24,80.11"
2024-05-28_13-32-27.167648,"81.28,61.64"
2024-05-28_13-32-27.200326,"84.94,43.19"
2024-05-28_13-32-27.233090,"73.83,49.79"
2024-05-28_13-32-27.265735,"60.41,49.44"
2024-05-28_13-32-27.298479,"53.28,75.69"
2024-05-28_13-32-27.327596,"52.71,71.03"
2024-05-28_13-32-27.360081,"74.09,67.24"
2024-05-28_13-32-27.393032,"58.96,72.45"
2024-05-28_13-32-27.425592,"51.60,69.96"
2024-05-28_13-32-27.458356,"91.21,87.21"
2024-05-28_13-32-27.491026,"74.57,61.62"
2024-05-28_13-32-27.523796,"83.31,48.39"
2024-05-28_13-32-27.552575,"84.14,34.62"
2024-05-28_13-32-27.585267,"83.35,63.89"
