timestamp,EMG
2024-05-28_19-20-04.291474,18.26
2024-05-28_19-20-04.324214,16.82
2024-05-28_19-20-04.356608,17.29
2024-05-28_19-20-04.389104,17.98
2024-05-28_19-20-04.421917,22.66
2024-05-28_19-20-04.450537,18.11
2024-05-28_19-20-04.483900,13.85
2024-05-28_19-20-04.527037,17.65
2024-05-28_19-20-04.548960,19.45
2024-05-28_19-20-04.581615,17.63
2024-05-28_19-20-04.614657,18.16
2024-05-28_19-20-04.647175,18.21
2024-05-28_19-20-04.679794,17.82
2024-05-28_19-20-04.708479,21.83
2024-05-28_19-20-04.741264,18.73
2024-05-28_19-20-04.774059,20.39
2024-05-28_19-20-04.806872,17.32
2024-05-28_19-20-04.839656,19.41
2024-05-28_19-20-04.872372,19.12
2024-05-28_19-20-04.905144,14.23
2024-05-28_19-20-04.933762,16.70
2024-05-28_19-20-04.966614,17.35
2024-05-28_19-20-04.999594,19.71
2024-05-28_19-20-05.032077,17.94
2024-05-28_19-20-05.064815,16.42
2024-05-28_19-20-05.097712,17.48
2024-05-28_19-20-05.130625,15.02
2024-05-28_19-20-05.159081,19.76
2024-05-28_19-20-05.191791,15.01
2024-05-28_19-20-05.225634,17.42
2024-05-28_19-20-05.257324,13.72
2024-05-28_19-20-05.290103,19.66
2024-05-28_19-20-05.322952,15.60
2024-05-28_19-20-05.355991,18.55
2024-05-28_19-20-05.388422,16.20
2024-05-28_19-20-05.417172,19.44
2024-05-28_19-20-05.450024,18.59
2024-05-28_19-20-05.482679,15.04
2024-05-28_19-20-05.515693,16.81
2024-05-28_19-20-05.552931,15.98
2024-05-28_19-20-05.590475,17.27
2024-05-28_19-20-05.615091,15.94
2024-05-28_19-20-05.645695,16.74
2024-05-28_19-20-05.676408,15.59
2024-05-28_19-20-05.715644,17.21
2024-05-28_19-20-05.742498,18.63
2024-05-28_19-20-05.774051,18.38
2024-05-28_19-20-05.806223,13.96
2024-05-28_19-20-05.839045,17.82
2024-05-28_19-20-05.867695,15.53
2024-05-28_19-20-05.900471,17.20
2024-05-28_19-20-05.933511,15.58
2024-05-28_19-20-05.965948,15.54
2024-05-28_19-20-05.998959,16.19
2024-05-28_19-20-06.031550,18.84
2024-05-28_19-20-06.064226,18.05
2024-05-28_19-20-06.092878,15.28
2024-05-28_19-20-06.125742,18.32
2024-05-28_19-20-06.158413,12.96
2024-05-28_19-20-06.191205,20.09
2024-05-28_19-20-06.223991,14.53
2024-05-28_19-20-06.256756,16.47
2024-05-28_19-20-06.289471,13.70
2024-05-28_19-20-06.322223,17.93
2024-05-28_19-20-06.350903,16.37
2024-05-28_19-20-06.383697,16.41
2024-05-28_19-20-06.416481,17.63
2024-05-28_19-20-06.449218,15.42
2024-05-28_19-20-06.482204,20.23
2024-05-28_19-20-06.514894,13.18
2024-05-28_19-20-06.547652,17.58
2024-05-28_19-20-06.576211,13.90
2024-05-28_19-20-06.608935,18.76
2024-05-28_19-20-06.641800,15.46
2024-05-28_19-20-06.674545,16.36
2024-05-28_19-20-06.707292,15.55
2024-05-28_19-20-06.740031,18.60
2024-05-28_19-20-06.772764,18.84
2024-05-28_19-20-06.801553,15.26
2024-05-28_19-20-06.834250,16.57
2024-05-28_19-20-06.867025,15.95
2024-05-28_19-20-06.899794,17.48
2024-05-28_19-20-06.932540,15.74
2024-05-28_19-20-06.965287,16.92
2024-05-28_19-20-06.998069,14.76
2024-05-28_19-20-07.030737,16.21
2024-05-28_19-20-07.059524,19.03
2024-05-28_19-20-07.092257,18.05
2024-05-28_19-20-07.125009,15.86
2024-05-28_19-20-07.157755,17.48
2024-05-28_19-20-07.190561,14.26
2024-05-28_19-20-07.223479,17.22
2024-05-28_19-20-07.255999,15.55
2024-05-28_19-20-07.284746,15.77
2024-05-28_19-20-07.317563,15.41
2024-05-28_19-20-07.350266,17.65
2024-05-28_19-20-07.383045,17.19
2024-05-28_19-20-07.416327,15.56
2024-05-28_19-20-07.448810,18.33
2024-05-28_19-20-07.481401,13.80
2024-05-28_19-20-07.510002,20.99
2024-05-28_19-20-07.542869,14.07
2024-05-28_19-20-07.575683,17.65
2024-05-28_19-20-07.608359,13.05
2024-05-28_19-20-07.641180,18.59
2024-05-28_19-20-07.675879,16.22
2024-05-28_19-20-07.706704,16.62
2024-05-28_19-20-07.742928,17.65
2024-05-28_19-20-07.769605,15.70
2024-05-28_19-20-07.800870,20.82
2024-05-28_19-20-07.833702,12.15
2024-05-28_19-20-07.868078,17.94
2024-05-28_19-20-07.899410,14.25
2024-05-28_19-20-07.931919,18.46
2024-05-28_19-20-07.964653,15.82
2024-05-28_19-20-07.993303,16.04
2024-05-28_19-20-08.026212,14.50
2024-05-28_19-20-08.058906,17.93
2024-05-28_19-20-08.091762,19.43
2024-05-28_19-20-08.124366,16.00
2024-05-28_19-20-08.157134,17.76
2024-05-28_19-20-08.189880,14.51
2024-05-28_19-20-08.218685,16.97
2024-05-28_19-20-08.251387,16.94
2024-05-28_19-20-08.284147,16.76
2024-05-28_19-20-08.316896,15.34
2024-05-28_19-20-08.349761,16.65
2024-05-28_19-20-08.382440,18.87
2024-05-28_19-20-08.415196,18.49
2024-05-28_19-20-08.447871,15.80
2024-05-28_19-20-08.476582,17.61
2024-05-28_19-20-08.509412,14.69
2024-05-28_19-20-08.542162,18.17
2024-05-28_19-20-08.574944,16.54
2024-05-28_19-20-08.607890,15.72
2024-05-28_19-20-08.640543,15.99
2024-05-28_19-20-08.673229,19.50
2024-05-28_19-20-08.701866,15.72
2024-05-28_19-20-08.734650,17.63
2024-05-28_19-20-08.767426,16.75
2024-05-28_19-20-08.800230,17.90
2024-05-28_19-20-08.832973,18.15
2024-05-28_19-20-08.865706,14.43
2024-05-28_19-20-08.898448,15.91
2024-05-28_19-20-08.927177,17.98
2024-05-28_19-20-08.959931,17.87
2024-05-28_19-20-08.992690,18.20
2024-05-28_19-20-09.026475,15.89
2024-05-28_19-20-09.058293,18.34
2024-05-28_19-20-09.090961,17.61
2024-05-28_19-20-09.123777,22.23
2024-05-28_19-20-09.152399,19.17
2024-05-28_19-20-09.185196,20.07
2024-05-28_19-20-09.217940,18.41
2024-05-28_19-20-09.250747,17.22
2024-05-28_19-20-09.283479,17.73
2024-05-28_19-20-09.316257,15.78
2024-05-28_19-20-09.349040,16.04
2024-05-28_19-20-09.381747,16.07
2024-05-28_19-20-09.410478,20.50
2024-05-28_19-20-09.443251,17.64
2024-05-28_19-20-09.476005,18.76
2024-05-28_19-20-09.508742,17.91
2024-05-28_19-20-09.541531,14.32
2024-05-28_19-20-09.574295,20.74
2024-05-28_19-20-09.607095,14.06
2024-05-28_19-20-09.635807,17.08
2024-05-28_19-20-09.668588,14.39
2024-05-28_19-20-09.701230,19.00
2024-05-28_19-20-09.734013,18.30
2024-05-28_19-20-09.766794,17.23
2024-05-28_19-20-09.799560,18.46
2024-05-28_19-20-09.832372,18.45
2024-05-28_19-20-09.860963,20.05
2024-05-28_19-20-09.893800,17.86
2024-05-28_19-20-09.926548,13.73
2024-05-28_19-20-09.959269,17.85
2024-05-28_19-20-09.992102,16.08
2024-05-28_19-20-10.024975,18.22
2024-05-28_19-20-10.057569,16.26
2024-05-28_19-20-10.090279,18.51
2024-05-28_19-20-10.119099,17.65
2024-05-28_19-20-10.151795,20.13
2024-05-28_19-20-10.184602,18.66
2024-05-28_19-20-10.218348,20.70
2024-05-28_19-20-10.250421,17.20
2024-05-28_19-20-10.282926,20.39
2024-05-28_19-20-10.315663,19.48
2024-05-28_19-20-10.344336,17.57
2024-05-28_19-20-10.377131,17.09
2024-05-28_19-20-10.409835,16.70
2024-05-28_19-20-10.442641,19.04
2024-05-28_19-20-10.476304,17.35
2024-05-28_19-20-10.508947,16.68
2024-05-28_19-20-10.541413,18.02
2024-05-28_19-20-10.571094,16.38
2024-05-28_19-20-10.602860,19.68
2024-05-28_19-20-10.635150,14.66
2024-05-28_19-20-10.667904,17.21
2024-05-28_19-20-10.700693,14.41
2024-05-28_19-20-10.733431,18.90
2024-05-28_19-20-10.766221,15.15
2024-05-28_19-20-10.798852,17.49
2024-05-28_19-20-10.827596,17.12
2024-05-28_19-20-10.860430,19.22
2024-05-28_19-20-10.893170,18.17
2024-05-28_19-20-10.925936,15.91
2024-05-28_19-20-10.958717,16.73
2024-05-28_19-20-10.991635,16.00
2024-05-28_19-20-11.024215,17.16
2024-05-28_19-20-11.053278,16.14
2024-05-28_19-20-11.085651,16.51
2024-05-28_19-20-11.118384,15.46
2024-05-28_19-20-11.151155,17.19
2024-05-28_19-20-11.183908,19.88
2024-05-28_19-20-11.216723,18.88
2024-05-28_19-20-11.249515,15.62
2024-05-28_19-20-11.278102,17.04
2024-05-28_19-20-11.310861,14.08
2024-05-28_19-20-11.343616,17.68
2024-05-28_19-20-11.376448,16.10
2024-05-28_19-20-11.409228,15.51
2024-05-28_19-20-11.442011,15.37
2024-05-28_19-20-11.474770,18.29
2024-05-28_19-20-11.503401,17.06
2024-05-28_19-20-11.536168,16.29
2024-05-28_19-20-11.568978,18.04
2024-05-28_19-20-11.601719,15.82
2024-05-28_19-20-11.634638,20.52
2024-05-28_19-20-11.678398,14.21
2024-05-28_19-20-11.701455,17.71
2024-05-28_19-20-11.735303,14.06
2024-05-28_19-20-11.761491,18.83
2024-05-28_19-20-11.794227,15.04
2024-05-28_19-20-11.828699,15.63
2024-05-28_19-20-11.859760,16.77
2024-05-28_19-20-11.892524,16.07
2024-05-28_19-20-11.925239,21.08
2024-05-28_19-20-11.958006,14.86
2024-05-28_19-20-11.986695,18.18
2024-05-28_19-20-12.019463,12.73
2024-05-28_19-20-12.052567,18.98
2024-05-28_19-20-12.085100,15.91
2024-05-28_19-20-12.117768,16.87
2024-05-28_19-20-12.150610,14.64
2024-05-28_19-20-12.183263,17.22
2024-05-28_19-20-12.211949,18.04
2024-05-28_19-20-12.244812,16.52
2024-05-28_19-20-12.277543,17.98
2024-05-28_19-20-12.310277,15.84
2024-05-28_19-20-12.343006,17.90
2024-05-28_19-20-12.375885,16.36
2024-05-28_19-20-12.408703,18.00
2024-05-28_19-20-12.441227,14.53
2024-05-28_19-20-12.470002,16.98
2024-05-28_19-20-12.502754,16.67
2024-05-28_19-20-12.535555,17.48
2024-05-28_19-20-12.568270,15.45
2024-05-28_19-20-12.601076,18.49
2024-05-28_19-20-12.633804,16.05
2024-05-28_19-20-12.666557,18.66
2024-05-28_19-20-12.695230,18.03
2024-05-28_19-20-12.728022,14.76
2024-05-28_19-20-12.760820,16.44
2024-05-28_19-20-12.793577,17.17
2024-05-28_19-20-12.826324,17.89
2024-05-28_19-20-12.859164,14.04
2024-05-28_19-20-12.891821,16.49
2024-05-28_19-20-12.920595,15.10
2024-05-28_19-20-12.953308,20.05
2024-05-28_19-20-12.986048,16.24
2024-05-28_19-20-13.018849,18.60
2024-05-28_19-20-13.051578,15.45
2024-05-28_19-20-13.084480,18.28
2024-05-28_19-20-13.117302,16.72
2024-05-28_19-20-13.149801,16.15
2024-05-28_19-20-13.178596,15.99
2024-05-28_19-20-13.211288,16.07
2024-05-28_19-20-13.244175,17.98
2024-05-28_19-20-13.276884,16.12
2024-05-28_19-20-13.309630,17.19
2024-05-28_19-20-13.344448,17.10
2024-05-28_19-20-13.375115,18.74
2024-05-28_19-20-13.403848,18.63
2024-05-28_19-20-13.436622,17.54
2024-05-28_19-20-13.469388,14.16
2024-05-28_19-20-13.502138,18.05
2024-05-28_19-20-13.534890,16.22
2024-05-28_19-20-13.567659,17.24
2024-05-28_19-20-13.600375,15.20
2024-05-28_19-20-13.629162,16.80
2024-05-28_19-20-13.661886,17.08
2024-05-28_19-20-13.694654,19.01
2024-05-28_19-20-13.727418,18.32
2024-05-28_19-20-13.760148,14.08
2024-05-28_19-20-13.792922,18.43
2024-05-28_19-20-13.825700,14.32
2024-05-28_19-20-13.854366,19.82
2024-05-28_19-20-13.887126,14.03
2024-05-28_19-20-13.919913,17.42
2024-05-28_19-20-13.952685,14.71
2024-05-28_19-20-13.985433,18.75
2024-05-28_19-20-14.018193,17.67
2024-05-28_19-20-14.050956,17.44
2024-05-28_19-20-14.083674,17.52
2024-05-28_19-20-14.112384,15.98
2024-05-28_19-20-14.145238,19.37
2024-05-28_19-20-14.177907,13.74
2024-05-28_19-20-14.210778,17.41
2024-05-28_19-20-14.243460,14.20
2024-05-28_19-20-14.276256,19.15
2024-05-28_19-20-14.308985,16.25
2024-05-28_19-20-14.337653,17.22
2024-05-28_19-20-14.370403,16.07
2024-05-28_19-20-14.403220,18.22
2024-05-28_19-20-14.436023,19.46
2024-05-28_19-20-14.468731,15.52
2024-05-28_19-20-14.501570,17.26
2024-05-28_19-20-14.534255,14.98
2024-05-28_19-20-14.562933,17.57
2024-05-28_19-20-14.595661,16.27
2024-05-28_19-20-14.628532,17.08
2024-05-28_19-20-14.661246,15.18
2024-05-28_19-20-14.694000,17.01
2024-05-28_19-20-14.726775,19.19
2024-05-28_19-20-14.759528,18.63
2024-05-28_19-20-14.792223,17.08
2024-05-28_19-20-14.820935,17.91
2024-05-28_19-20-14.853723,15.56
2024-05-28_19-20-14.886593,17.75
2024-05-28_19-20-14.919261,16.53
2024-05-28_19-20-14.951998,15.92
2024-05-28_19-20-14.984815,15.39
2024-05-28_19-20-15.017556,17.28
2024-05-28_19-20-15.046222,16.60
2024-05-28_19-20-15.078984,16.21
2024-05-28_19-20-15.111760,18.18
2024-05-28_19-20-15.144541,16.44
2024-05-28_19-20-15.177296,21.76
2024-05-28_19-20-15.210032,13.75
2024-05-28_19-20-15.243379,18.06
2024-05-28_19-20-15.272149,13.05
2024-05-28_19-20-15.304422,19.10
2024-05-28_19-20-15.337112,16.37
2024-05-28_19-20-15.370004,15.64
2024-05-28_19-20-15.403368,16.13
2024-05-28_19-20-15.435484,16.48
2024-05-28_19-20-15.468199,20.15
2024-05-28_19-20-15.500810,15.81
2024-05-28_19-20-15.529629,18.93
2024-05-28_19-20-15.562395,14.94
2024-05-28_19-20-15.595127,19.54
2024-05-28_19-20-15.627889,16.67
2024-05-28_19-20-15.661802,17.13
2024-05-28_19-20-15.693451,14.49
2024-05-28_19-20-15.726076,16.86
2024-05-28_19-20-15.754807,18.37
2024-05-28_19-20-15.787543,16.80
2024-05-28_19-20-15.820330,18.11
2024-05-28_19-20-15.853154,16.11
2024-05-28_19-20-15.885893,18.02
2024-05-28_19-20-15.918650,17.38
2024-05-28_19-20-15.951384,18.43
2024-05-28_19-20-15.980021,14.49
2024-05-28_19-20-16.012909,17.30
2024-05-28_19-20-16.045679,16.24
2024-05-28_19-20-16.078402,17.93
2024-05-28_19-20-16.111167,15.00
2024-05-28_19-20-16.143853,17.50
2024-05-28_19-20-16.176768,15.83
2024-05-28_19-20-16.205348,19.94
2024-05-28_19-20-16.238125,17.41
2024-05-28_19-20-16.270874,14.92
2024-05-28_19-20-16.303609,16.86
2024-05-28_19-20-16.336939,16.89
2024-05-28_19-20-16.369303,18.46
2024-05-28_19-20-16.402027,14.66
2024-05-28_19-20-16.434626,16.25
2024-05-28_19-20-16.463522,15.61
2024-05-28_19-20-16.496119,20.15
2024-05-28_19-20-16.528930,16.14
2024-05-28_19-20-16.561664,18.19
2024-05-28_19-20-16.594408,16.30
2024-05-28_19-20-16.627154,17.63
2024-05-28_19-20-16.659917,16.35
2024-05-28_19-20-16.702173,16.03
2024-05-28_19-20-16.722353,16.04
2024-05-28_19-20-16.754202,16.51
2024-05-28_19-20-16.786955,17.55
2024-05-28_19-20-16.819697,16.43
2024-05-28_19-20-16.852498,17.77
2024-05-28_19-20-16.885215,16.51
2024-05-28_19-20-16.913843,18.60
2024-05-28_19-20-16.946639,18.19
2024-05-28_19-20-16.979380,17.80
2024-05-28_19-20-17.012150,12.65
2024-05-28_19-20-17.045036,17.27
2024-05-28_19-20-17.077728,15.86
2024-05-28_19-20-17.110599,17.12
2024-05-28_19-20-17.143184,15.65
2024-05-28_19-20-17.171876,16.17
2024-05-28_19-20-17.205022,17.37
2024-05-28_19-20-17.237585,19.31
2024-05-28_19-20-17.270221,18.46
2024-05-28_19-20-17.303026,14.44
2024-05-28_19-20-17.335828,18.55
2024-05-28_19-20-17.368511,13.59
2024-05-28_19-20-17.397181,20.25
2024-05-28_19-20-17.430015,14.70
2024-05-28_19-20-17.462756,17.63
2024-05-28_19-20-17.495558,14.02
2024-05-28_19-20-17.528390,18.66
2024-05-28_19-20-17.561062,16.92
2024-05-28_19-20-17.593775,16.49
2024-05-28_19-20-17.622509,18.11
2024-05-28_19-20-17.655230,16.14
2024-05-28_19-20-17.687991,20.88
2024-05-28_19-20-17.720732,13.50
2024-05-28_19-20-17.753518,17.98
2024-05-28_19-20-17.786276,13.77
2024-05-28_19-20-17.819098,19.26
2024-05-28_19-20-17.851750,15.46
2024-05-28_19-20-17.880508,17.09
2024-05-28_19-20-17.913260,16.25
2024-05-28_19-20-17.946042,18.94
2024-05-28_19-20-17.979234,19.22
2024-05-28_19-20-18.011611,15.75
2024-05-28_19-20-18.044342,17.71
2024-05-28_19-20-18.077054,15.80
2024-05-28_19-20-18.105753,17.73
2024-05-28_19-20-18.138537,17.29
2024-05-28_19-20-18.171282,17.21
2024-05-28_19-20-18.204046,15.42
2024-05-28_19-20-18.236823,17.32
2024-05-28_19-20-18.269588,18.96
2024-05-28_19-20-18.302412,19.16
2024-05-28_19-20-18.331041,17.05
2024-05-28_19-20-18.363800,19.41
2024-05-28_19-20-18.396554,14.35
2024-05-28_19-20-18.429348,18.07
2024-05-28_19-20-18.462074,16.64
2024-05-28_19-20-18.494840,16.38
2024-05-28_19-20-18.527614,16.21
2024-05-28_19-20-18.556284,18.01
2024-05-28_19-20-18.589058,17.40
2024-05-28_19-20-18.621828,16.20
2024-05-28_19-20-18.654566,17.62
2024-05-28_19-20-18.687351,16.27
2024-05-28_19-20-18.720165,21.95
2024-05-28_19-20-18.752941,14.53
2024-05-28_19-20-18.785613,18.76
2024-05-28_19-20-18.814316,13.39
2024-05-28_19-20-18.847094,18.67
2024-05-28_19-20-18.879887,16.22
2024-05-28_19-20-18.912605,16.51
2024-05-28_19-20-18.945412,16.30
2024-05-28_19-20-18.978128,16.37
2024-05-28_19-20-19.010932,20.41
2024-05-28_19-20-19.039713,16.44
2024-05-28_19-20-19.072378,18.74
2024-05-28_19-20-19.105127,13.57
2024-05-28_19-20-19.137892,19.16
2024-05-28_19-20-19.170654,17.59
2024-05-28_19-20-19.203439,17.18
2024-05-28_19-20-19.236199,14.39
2024-05-28_19-20-19.264837,17.79
2024-05-28_19-20-19.297604,17.46
2024-05-28_19-20-19.330402,16.32
2024-05-28_19-20-19.363207,17.51
2024-05-28_19-20-19.395923,17.41
2024-05-28_19-20-19.428700,18.27
2024-05-28_19-20-19.461521,18.72
2024-05-28_19-20-19.494153,18.76
2024-05-28_19-20-19.522911,14.55
2024-05-28_19-20-19.555647,17.64
2024-05-28_19-20-19.588479,16.96
2024-05-28_19-20-19.621190,18.42
2024-05-28_19-20-19.653989,15.48
2024-05-28_19-20-19.686781,16.62
2024-05-28_19-20-19.719470,15.64
2024-05-28_19-20-19.748145,20.23
2024-05-28_19-20-19.780975,18.39
2024-05-28_19-20-19.813713,15.50
2024-05-28_19-20-19.846500,17.36
2024-05-28_19-20-19.879211,17.19
2024-05-28_19-20-19.911998,18.85
2024-05-28_19-20-19.944737,14.12
2024-05-28_19-20-19.973506,17.00
2024-05-28_19-20-20.006193,15.74
2024-05-28_19-20-20.038951,19.78
2024-05-28_19-20-20.071752,16.35
2024-05-28_19-20-20.104449,18.35
2024-05-28_19-20-20.137280,17.01
2024-05-28_19-20-20.169994,17.61
2024-05-28_19-20-20.202716,18.23
2024-05-28_19-20-20.231672,16.45
2024-05-28_19-20-20.264415,16.43
2024-05-28_19-20-20.297024,15.96
2024-05-28_19-20-20.329811,18.28
2024-05-28_19-20-20.362526,16.61
2024-05-28_19-20-20.395267,17.35
2024-05-28_19-20-20.427968,17.01
2024-05-28_19-20-20.456819,18.34
2024-05-28_19-20-20.489500,18.82
2024-05-28_19-20-20.522215,19.51
2024-05-28_19-20-20.555021,14.29
2024-05-28_19-20-20.587755,18.38
2024-05-28_19-20-20.620697,16.09
2024-05-28_19-20-20.653283,17.53
2024-05-28_19-20-20.681999,15.27
2024-05-28_19-20-20.714749,16.47
2024-05-28_19-20-20.747563,16.65
2024-05-28_19-20-20.780277,19.52
2024-05-28_19-20-20.813077,18.88
2024-05-28_19-20-20.845827,15.56
2024-05-28_19-20-20.878614,19.98
2024-05-28_19-20-20.907252,14.10
2024-05-28_19-20-20.939988,20.49
2024-05-28_19-20-20.972792,14.93
2024-05-28_19-20-21.005587,17.90
2024-05-28_19-20-21.038343,13.90
2024-05-28_19-20-21.071065,18.94
2024-05-28_19-20-21.103832,16.94
2024-05-28_19-20-21.136648,17.19
2024-05-28_19-20-21.165303,18.21
2024-05-28_19-20-21.198072,16.30
2024-05-28_19-20-21.230818,21.01
2024-05-28_19-20-21.263621,13.60
2024-05-28_19-20-21.296380,18.49
2024-05-28_19-20-21.329112,14.98
2024-05-28_19-20-21.361834,19.49
2024-05-28_19-20-21.390515,16.19
2024-05-28_19-20-21.423332,17.29
2024-05-28_19-20-21.456112,16.27
2024-05-28_19-20-21.488857,19.83
2024-05-28_19-20-21.521688,19.31
2024-05-28_19-20-21.554686,16.96
2024-05-28_19-20-21.608398,18.22
2024-05-28_19-20-21.616360,14.60
2024-05-28_19-20-21.649560,18.06
2024-05-28_19-20-21.681444,17.55
2024-05-28_19-20-21.714282,17.25
2024-05-28_19-20-21.747228,15.53
2024-05-28_19-20-21.779706,16.94
2024-05-28_19-20-21.812625,19.05
2024-05-28_19-20-21.845113,19.06
2024-05-28_19-20-21.873859,17.39
2024-05-28_19-20-21.906626,18.60
2024-05-28_19-20-21.939394,16.14
2024-05-28_19-20-21.972218,19.32
2024-05-28_19-20-22.004906,17.37
2024-05-28_19-20-22.037702,16.74
2024-05-28_19-20-22.070474,16.60
2024-05-28_19-20-22.099307,18.21
2024-05-28_19-20-22.131893,17.45
2024-05-28_19-20-22.164641,17.08
2024-05-28_19-20-22.197442,18.88
2024-05-28_19-20-22.230181,16.96
2024-05-28_19-20-22.263027,22.91
2024-05-28_19-20-22.295690,15.94
2024-05-28_19-20-22.324439,19.71
2024-05-28_19-20-22.357195,14.55
2024-05-28_19-20-22.389900,19.55
2024-05-28_19-20-22.422681,16.10
2024-05-28_19-20-22.455463,17.17
2024-05-28_19-20-22.488225,16.71
2024-05-28_19-20-22.520961,16.76
2024-05-28_19-20-22.549648,20.92
2024-05-28_19-20-22.582451,17.40
2024-05-28_19-20-22.615194,19.28
2024-05-28_19-20-22.647919,14.90
2024-05-28_19-20-22.680750,19.15
2024-05-28_19-20-22.713868,17.58
2024-05-28_19-20-22.746271,18.15
2024-05-28_19-20-22.778974,15.50
2024-05-28_19-20-22.807796,17.81
2024-05-28_19-20-22.840620,18.36
2024-05-28_19-20-22.873236,16.32
2024-05-28_19-20-22.906020,17.92
2024-05-28_19-20-22.938737,17.45
2024-05-28_19-20-22.971624,18.95
2024-05-28_19-20-23.004180,18.49
2024-05-28_19-20-23.032911,19.38
2024-05-28_19-20-23.065653,14.58
2024-05-28_19-20-23.098458,17.52
2024-05-28_19-20-23.131199,17.16
2024-05-28_19-20-23.163989,18.65
2024-05-28_19-20-23.196807,15.57
2024-05-28_19-20-23.229555,18.60
2024-05-28_19-20-23.258514,16.45
2024-05-28_19-20-23.291059,20.22
2024-05-28_19-20-23.323709,17.73
2024-05-28_19-20-23.356648,16.97
2024-05-28_19-20-23.389311,17.88
2024-05-28_19-20-23.422136,16.52
2024-05-28_19-20-23.454875,18.53
2024-05-28_19-20-23.487846,14.69
2024-05-28_19-20-23.516301,16.93
2024-05-28_19-20-23.549068,15.62
2024-05-28_19-20-23.581815,21.16
2024-05-28_19-20-23.614545,16.36
2024-05-28_19-20-23.647356,19.96
2024-05-28_19-20-23.680049,16.77
2024-05-28_19-20-23.712801,19.12
2024-05-28_19-20-23.741524,17.71
2024-05-28_19-20-23.774321,16.48
2024-05-28_19-20-23.807054,16.73
2024-05-28_19-20-23.840249,16.65
2024-05-28_19-20-23.872696,17.79
2024-05-28_19-20-23.905408,17.25
2024-05-28_19-20-23.938146,18.19
2024-05-28_19-20-23.966774,17.09
2024-05-28_19-20-23.999658,19.55
2024-05-28_19-20-24.032365,19.55
2024-05-28_19-20-24.065347,19.99
2024-05-28_19-20-24.125202,14.83
2024-05-28_19-20-24.133575,18.77
2024-05-28_19-20-24.163640,16.56
2024-05-28_19-20-24.196403,17.98
2024-05-28_19-20-24.224879,16.41
2024-05-28_19-20-24.257579,17.16
2024-05-28_19-20-24.290714,17.95
2024-05-28_19-20-24.323161,20.31
2024-05-28_19-20-24.355946,19.16
2024-05-28_19-20-24.388744,16.27
2024-05-28_19-20-24.421417,20.13
2024-05-28_19-20-24.450229,16.53
2024-05-28_19-20-24.482877,20.20
2024-05-28_19-20-24.515607,15.62
2024-05-28_19-20-24.548399,18.60
2024-05-28_19-20-24.581127,15.10
2024-05-28_19-20-24.613960,19.97
2024-05-28_19-20-24.646667,18.45
2024-05-28_19-20-24.675375,17.40
2024-05-28_19-20-24.708148,18.51
2024-05-28_19-20-24.740912,17.49
2024-05-28_19-20-24.773662,21.39
2024-05-28_19-20-24.806427,14.16
2024-05-28_19-20-24.839192,18.11
2024-05-28_19-20-24.871995,14.69
2024-05-28_19-20-24.900620,20.02
2024-05-28_19-20-24.933427,16.28
2024-05-28_19-20-24.966162,18.88
2024-05-28_19-20-24.998876,17.39
2024-05-28_19-20-25.031652,20.37
2024-05-28_19-20-25.064407,19.20
2024-05-28_19-20-25.097163,16.31
2024-05-28_19-20-25.129944,17.90
2024-05-28_19-20-25.158625,16.57
2024-05-28_19-20-25.191408,18.27
2024-05-28_19-20-25.224253,16.57
2024-05-28_19-20-25.260250,16.80
2024-05-28_19-20-25.289737,15.86
2024-05-28_19-20-25.322556,17.79
2024-05-28_19-20-25.355331,20.17
2024-05-28_19-20-25.384035,19.66
2024-05-28_19-20-25.416802,16.52
2024-05-28_19-20-25.449517,19.90
2024-05-28_19-20-25.482274,14.85
2024-05-28_19-20-25.515095,18.60
2024-05-28_19-20-25.547778,16.50
2024-05-28_19-20-25.580476,16.65
2024-05-28_19-20-25.609213,15.64
2024-05-28_19-20-25.641939,19.22
2024-05-28_19-20-25.674875,17.19
2024-05-28_19-20-25.707510,17.29
2024-05-28_19-20-25.740272,18.66
2024-05-28_19-20-25.773138,15.12
2024-05-28_19-20-25.806020,22.24
2024-05-28_19-20-25.838609,14.82
2024-05-28_19-20-25.867238,18.22
2024-05-28_19-20-25.900009,14.92
2024-05-28_19-20-25.932776,19.19
2024-05-28_19-20-25.965508,16.69
2024-05-28_19-20-25.998386,17.03
2024-05-28_19-20-26.031091,17.71
2024-05-28_19-20-26.063976,17.47
2024-05-28_19-20-26.092517,21.78
2024-05-28_19-20-26.125254,16.08
2024-05-28_19-20-26.158167,18.89
2024-05-28_19-20-26.190869,15.63
2024-05-28_19-20-26.223600,18.81
2024-05-28_19-20-26.256342,18.01
2024-05-28_19-20-26.289081,16.10
2024-05-28_19-20-26.317846,16.69
2024-05-28_19-20-26.364079,16.69
2024-05-28_19-20-26.383346,21.08
2024-05-28_19-20-26.416124,18.88
2024-05-28_19-20-26.448971,16.43
2024-05-28_19-20-26.481652,19.49
2024-05-28_19-20-26.514668,19.76
2024-05-28_19-20-26.543044,18.74
2024-05-28_19-20-26.575828,16.72
2024-05-28_19-20-26.608616,16.57
2024-05-28_19-20-26.641326,16.72
2024-05-28_19-20-26.674235,18.90
2024-05-28_19-20-26.706853,17.38
2024-05-28_19-20-26.739673,18.48
2024-05-28_19-20-26.772399,20.80
2024-05-28_19-20-26.801018,19.85
2024-05-28_19-20-26.833842,19.07
2024-05-28_19-20-26.866664,19.59
2024-05-28_19-20-26.899429,15.41
2024-05-28_19-20-26.932150,18.52
2024-05-28_19-20-26.965207,16.88
2024-05-28_19-20-26.997824,17.15
2024-05-28_19-20-27.026403,17.22
2024-05-28_19-20-27.059188,17.82
2024-05-28_19-20-27.091914,18.85
2024-05-28_19-20-27.124645,20.11
2024-05-28_19-20-27.157444,19.36
2024-05-28_19-20-27.190184,15.66
2024-05-28_19-20-27.222931,19.03
2024-05-28_19-20-27.251599,16.82
2024-05-28_19-20-27.284435,19.75
2024-05-28_19-20-27.317160,15.05
2024-05-28_19-20-27.349889,17.57
2024-05-28_19-20-27.382625,15.19
2024-05-28_19-20-27.415382,20.32
2024-05-28_19-20-27.448200,18.63
2024-05-28_19-20-27.480920,16.78
2024-05-28_19-20-27.509606,18.33
2024-05-28_19-20-27.542442,15.59
2024-05-28_19-20-27.575183,20.45
2024-05-28_19-20-27.607955,15.16
2024-05-28_19-20-27.640718,17.76
2024-05-28_19-20-27.673421,15.20
2024-05-28_19-20-27.706202,20.40
2024-05-28_19-20-27.734877,16.08
2024-05-28_19-20-27.767657,19.03
2024-05-28_19-20-27.800399,17.38
2024-05-28_19-20-27.833242,19.86
2024-05-28_19-20-27.865962,18.77
2024-05-28_19-20-27.898803,16.62
2024-05-28_19-20-27.931456,17.90
2024-05-28_19-20-27.960144,16.53
2024-05-28_19-20-27.992927,17.92
2024-05-28_19-20-28.025658,17.22
2024-05-28_19-20-28.058484,17.29
2024-05-28_19-20-28.091264,17.24
2024-05-28_19-20-28.124063,19.72
2024-05-28_19-20-28.156808,20.38
2024-05-28_19-20-28.189483,19.40
2024-05-28_19-20-28.218237,15.65
2024-05-28_19-20-28.250956,20.32
2024-05-28_19-20-28.283732,16.06
2024-05-28_19-20-28.316470,17.86
2024-05-28_19-20-28.349265,15.24
2024-05-28_19-20-28.381995,16.51
2024-05-28_19-20-28.414691,16.36
2024-05-28_19-20-28.443456,20.59
2024-05-28_19-20-28.476260,19.08
2024-05-28_19-20-28.509032,16.74
2024-05-28_19-20-28.541746,19.09
2024-05-28_19-20-28.574539,15.91
2024-05-28_19-20-28.607336,21.06
2024-05-28_19-20-28.640020,15.31
2024-05-28_19-20-28.668722,18.09
2024-05-28_19-20-28.701489,14.73
2024-05-28_19-20-28.734292,19.26
2024-05-28_19-20-28.767064,18.61
2024-05-28_19-20-28.799928,17.47
2024-05-28_19-20-28.832682,18.69
2024-05-28_19-20-28.865450,17.79
2024-05-28_19-20-28.894045,20.59
2024-05-28_19-20-28.926828,15.16
2024-05-28_19-20-28.959548,18.21
2024-05-28_19-20-28.992311,14.98
2024-05-28_19-20-29.025037,19.92
2024-05-28_19-20-29.057873,16.63
2024-05-28_19-20-29.090686,17.05
2024-05-28_19-20-29.123367,17.60
2024-05-28_19-20-29.152062,20.00
2024-05-28_19-20-29.184819,19.07
2024-05-28_19-20-29.217618,16.46
2024-05-28_19-20-29.250498,17.62
2024-05-28_19-20-29.283156,16.98
2024-05-28_19-20-29.316326,17.91
2024-05-28_19-20-29.348623,17.24
2024-05-28_19-20-29.377333,17.46
2024-05-28_19-20-29.410059,16.03
2024-05-28_19-20-29.442831,17.49
2024-05-28_19-20-29.475615,20.28
2024-05-28_19-20-29.508378,19.57
2024-05-28_19-20-29.541089,16.84
2024-05-28_19-20-29.573880,19.39
2024-05-28_19-20-29.602582,14.80
2024-05-28_19-20-29.635333,18.70
2024-05-28_19-20-29.668044,16.46
2024-05-28_19-20-29.700936,16.50
2024-05-28_19-20-29.733641,16.50
2024-05-28_19-20-29.766401,19.53
2024-05-28_19-20-29.799124,17.91
2024-05-28_19-20-29.831898,17.72
2024-05-28_19-20-29.860581,19.20
2024-05-28_19-20-29.893350,14.96
2024-05-28_19-20-29.926093,22.30
2024-05-28_19-20-29.958876,15.54
2024-05-28_19-20-29.991669,18.23
2024-05-28_19-20-30.024400,15.27
2024-05-28_19-20-30.057138,18.98
2024-05-28_19-20-30.085832,17.24
2024-05-28_19-20-30.118648,17.71
2024-05-28_19-20-30.151462,18.27
2024-05-28_19-20-30.184220,16.64
2024-05-28_19-20-30.217343,21.62
2024-05-28_19-20-30.250227,14.20
2024-05-28_19-20-30.282782,19.09
2024-05-28_19-20-30.311172,15.89
2024-05-28_19-20-30.343980,19.77
2024-05-28_19-20-30.376671,16.32
2024-05-28_19-20-30.409542,17.55
2024-05-28_19-20-30.442221,16.12
2024-05-28_19-20-30.475000,18.36
2024-05-28_19-20-30.507786,20.40
2024-05-28_19-20-30.540508,16.70
2024-05-28_19-20-30.569152,17.97
2024-05-28_19-20-30.601966,17.01
2024-05-28_19-20-30.634720,18.09
2024-05-28_19-20-30.667484,17.25
2024-05-28_19-20-30.700224,17.82
2024-05-28_19-20-30.733009,15.84
2024-05-28_19-20-30.765946,17.47
2024-05-28_19-20-30.794475,19.43
2024-05-28_19-20-30.827193,19.97
2024-05-28_19-20-30.860032,17.42
2024-05-28_19-20-30.892763,19.69
2024-05-28_19-20-30.925540,16.67
2024-05-28_19-20-30.958270,19.11
2024-05-28_19-20-30.991017,17.33
2024-05-28_19-20-31.019744,16.16
2024-05-28_19-20-31.052557,16.47
2024-05-28_19-20-31.085232,18.97
2024-05-28_19-20-31.118002,17.80
2024-05-28_19-20-31.150817,16.83
2024-05-28_19-20-31.183539,19.59
2024-05-28_19-20-31.216300,16.49
2024-05-28_19-20-31.249002,22.44
2024-05-28_19-20-31.277709,15.80
2024-05-28_19-20-31.310466,19.70
2024-05-28_19-20-31.343261,14.51
2024-05-28_19-20-31.376032,19.84
2024-05-28_19-20-31.408806,16.02
2024-05-28_19-20-31.441562,16.73
2024-05-28_19-20-31.474258,17.83
2024-05-28_19-20-31.503022,17.15
2024-05-28_19-20-31.535792,21.84
2024-05-28_19-20-31.568501,14.72
2024-05-28_19-20-31.601329,19.57
2024-05-28_19-20-31.634079,14.76
2024-05-28_19-20-31.666882,20.09
2024-05-28_19-20-31.699548,17.59
2024-05-28_19-20-31.728288,17.47
2024-05-28_19-20-31.761060,15.32
2024-05-28_19-20-31.793762,18.28
2024-05-28_19-20-31.826489,20.21
2024-05-28_19-20-31.859318,17.20
2024-05-28_19-20-31.892080,18.78
2024-05-28_19-20-31.924870,17.28
2024-05-28_19-20-31.953499,18.77
2024-05-28_19-20-31.986386,18.28
2024-05-28_19-20-32.019084,18.03
2024-05-28_19-20-32.051847,14.39
2024-05-28_19-20-32.084618,17.63
2024-05-28_19-20-32.117334,17.82
2024-05-28_19-20-32.150080,19.10
2024-05-28_19-20-32.182838,17.42
2024-05-28_19-20-32.211538,19.54
2024-05-28_19-20-32.244428,16.65
2024-05-28_19-20-32.277093,20.02
2024-05-28_19-20-32.310098,17.64
2024-05-28_19-20-32.342720,17.03
2024-05-28_19-20-32.375374,16.92
2024-05-28_19-20-32.408193,18.77
2024-05-28_19-20-32.436801,17.63
2024-05-28_19-20-32.469592,16.65
2024-05-28_19-20-32.502473,18.49
2024-05-28_19-20-32.535138,16.74
2024-05-28_19-20-32.567903,22.14
2024-05-28_19-20-32.600651,15.54
2024-05-28_19-20-32.633483,19.65
2024-05-28_19-20-32.662100,14.28
2024-05-28_19-20-32.694869,19.97
2024-05-28_19-20-32.727647,15.96
2024-05-28_19-20-32.760395,17.14
2024-05-28_19-20-32.793119,17.23
2024-05-28_19-20-32.825907,17.79
2024-05-28_19-20-32.858639,21.78
2024-05-28_19-20-32.891388,17.82
2024-05-28_19-20-32.920100,18.81
2024-05-28_19-20-32.952985,15.31
2024-05-28_19-20-32.985741,20.01
2024-05-28_19-20-33.022415,17.49
2024-05-28_19-20-33.065317,18.18
2024-05-28_19-20-33.084179,15.68
2024-05-28_19-20-33.116670,17.33
2024-05-28_19-20-33.145421,19.48
2024-05-28_19-20-33.178179,17.33
2024-05-28_19-20-33.210934,18.49
2024-05-28_19-20-33.243703,17.66
2024-05-28_19-20-33.276539,19.32
2024-05-28_19-20-33.309262,18.37
2024-05-28_19-20-33.342011,18.19
2024-05-28_19-20-33.371522,15.65
2024-05-28_19-20-33.403483,17.51
2024-05-28_19-20-33.436204,18.47
2024-05-28_19-20-33.468913,18.57
2024-05-28_19-20-33.501736,16.11
2024-05-28_19-20-33.534517,19.57
2024-05-28_19-20-33.567278,16.50
2024-05-28_19-20-33.600020,19.53
2024-05-28_19-20-33.628709,18.29
2024-05-28_19-20-33.661551,17.05
2024-05-28_19-20-33.694242,17.01
2024-05-28_19-20-33.727077,19.26
2024-05-28_19-20-33.759846,17.30
2024-05-28_19-20-33.792527,18.17
2024-05-28_19-20-33.825289,17.24
2024-05-28_19-20-33.853954,20.06
2024-05-28_19-20-33.886665,19.71
2024-05-28_19-20-33.919492,17.03
2024-05-28_19-20-33.952334,18.53
2024-05-28_19-20-33.985234,16.54
2024-05-28_19-20-34.017806,18.08
2024-05-28_19-20-34.050516,17.53
2024-05-28_19-20-34.079295,16.92
2024-05-28_19-20-34.112019,16.16
2024-05-28_19-20-34.144739,17.35
2024-05-28_19-20-34.177504,19.72
2024-05-28_19-20-34.210314,19.92
2024-05-28_19-20-34.243035,16.94
2024-05-28_19-20-34.275818,19.76
2024-05-28_19-20-34.308522,16.30
2024-05-28_19-20-34.337241,18.56
2024-05-28_19-20-34.370105,16.45
2024-05-28_19-20-34.402791,16.82
2024-05-28_19-20-34.435566,16.29
2024-05-28_19-20-34.468284,19.21
2024-05-28_19-20-34.501079,18.61
2024-05-28_19-20-34.533840,18.24
2024-05-28_19-20-34.562543,19.74
2024-05-28_19-20-34.595344,15.89
2024-05-28_19-20-34.628072,22.64
2024-05-28_19-20-34.660758,15.63
2024-05-28_19-20-34.693575,18.53
2024-05-28_19-20-34.726357,14.68
2024-05-28_19-20-34.759089,19.97
2024-05-28_19-20-34.787939,16.33
2024-05-28_19-20-34.820532,16.89
2024-05-28_19-20-34.853313,19.08
2024-05-28_19-20-34.886032,16.80
2024-05-28_19-20-34.918846,21.59
2024-05-28_19-20-34.951675,15.95
2024-05-28_19-20-34.984371,18.60
2024-05-28_19-20-35.017103,15.29
2024-05-28_19-20-35.045799,19.78
2024-05-28_19-20-35.078576,16.88
2024-05-28_19-20-35.111388,17.34
2024-05-28_19-20-35.144146,15.96
2024-05-28_19-20-35.176887,19.36
2024-05-28_19-20-35.209675,19.55
2024-05-28_19-20-35.242380,17.61
2024-05-28_19-20-35.271272,18.27
2024-05-28_19-20-35.303876,16.88
2024-05-28_19-20-35.336619,18.65
2024-05-28_19-20-35.369367,17.34
2024-05-28_19-20-35.402145,17.82
2024-05-28_19-20-35.434917,15.66
2024-05-28_19-20-35.467665,16.92
2024-05-28_19-20-35.496401,20.19
2024-05-28_19-20-35.529125,19.45
2024-05-28_19-20-35.561908,16.74
2024-05-28_19-20-35.594650,19.28
2024-05-28_19-20-35.627461,15.09
2024-05-28_19-20-35.660180,19.00
2024-05-28_19-20-35.692937,16.64
2024-05-28_19-20-35.721778,16.85
2024-05-28_19-20-35.754525,15.77
2024-05-28_19-20-35.787175,18.98
2024-05-28_19-20-35.819964,17.35
2024-05-28_19-20-35.852837,17.70
2024-05-28_19-20-35.885499,18.34
2024-05-28_19-20-35.918268,16.21
2024-05-28_19-20-35.950947,22.53
2024-05-28_19-20-35.979601,13.98
2024-05-28_19-20-36.012515,18.50
2024-05-28_19-20-36.045163,14.14
2024-05-28_19-20-36.082193,18.95
2024-05-28_19-20-36.114229,16.55
2024-05-28_19-20-36.143574,17.37
2024-05-28_19-20-36.176251,18.60
2024-05-28_19-20-36.205742,18.01
2024-05-28_19-20-36.237757,21.22
2024-05-28_19-20-36.270462,15.24
2024-05-28_19-20-36.303247,19.70
2024-05-28_19-20-36.336071,15.35
2024-05-28_19-20-36.368825,19.38
2024-05-28_19-20-36.401519,17.42
2024-05-28_19-20-36.430174,16.73
2024-05-28_19-20-36.462967,16.59
2024-05-28_19-20-36.495859,19.10
2024-05-28_19-20-36.528556,20.17
2024-05-28_19-20-36.561356,17.29
2024-05-28_19-20-36.594062,18.18
2024-05-28_19-20-36.626787,15.64
2024-05-28_19-20-36.659478,18.34
2024-05-28_19-20-36.688266,17.99
2024-05-28_19-20-36.721003,17.72
2024-05-28_19-20-36.753785,15.49
2024-05-28_19-20-36.786506,17.51
2024-05-28_19-20-36.819306,20.21
2024-05-28_19-20-36.852219,19.42
2024-05-28_19-20-36.884839,17.01
2024-05-28_19-20-36.915831,20.72
2024-05-28_19-20-36.948629,16.28
2024-05-28_19-20-36.979233,19.52
2024-05-28_19-20-37.011959,16.90
2024-05-28_19-20-37.044771,16.47
2024-05-28_19-20-37.077345,16.73
2024-05-28_19-20-37.110018,19.70
2024-05-28_19-20-37.138752,17.64
2024-05-28_19-20-37.171596,17.02
2024-05-28_19-20-37.204342,20.07
2024-05-28_19-20-37.237100,16.17
2024-05-28_19-20-37.269825,23.07
2024-05-28_19-20-37.302544,15.01
2024-05-28_19-20-37.335317,18.54
2024-05-28_19-20-37.368038,14.58
2024-05-28_19-20-37.396808,19.49
2024-05-28_19-20-37.429561,16.43
2024-05-28_19-20-37.462324,17.29
2024-05-28_19-20-37.495029,18.47
2024-05-28_19-20-37.527841,17.92
2024-05-28_19-20-37.560587,21.67
2024-05-28_19-20-37.593365,16.62
2024-05-28_19-20-37.622108,19.83
2024-05-28_19-20-37.654817,15.28
2024-05-28_19-20-37.687611,20.02
2024-05-28_19-20-37.720339,16.39
2024-05-28_19-20-37.753571,16.97
2024-05-28_19-20-37.785911,16.55
2024-05-28_19-20-37.818605,19.32
2024-05-28_19-20-37.847276,19.99
2024-05-28_19-20-37.880096,17.53
2024-05-28_19-20-37.913029,17.98
2024-05-28_19-20-37.945628,16.83
2024-05-28_19-20-37.978338,18.95
2024-05-28_19-20-38.011136,17.55
2024-05-28_19-20-38.044224,17.84
2024-05-28_19-20-38.082579,16.10
2024-05-28_19-20-38.105386,17.95
2024-05-28_19-20-38.138135,19.77
2024-05-28_19-20-38.170959,19.56
2024-05-28_19-20-38.203688,17.28
2024-05-28_19-20-38.236402,18.49
2024-05-28_19-20-38.269176,16.42
2024-05-28_19-20-38.301875,18.91
2024-05-28_19-20-38.330603,16.90
2024-05-28_19-20-38.363357,16.83
2024-05-28_19-20-38.396117,15.38
2024-05-28_19-20-38.428949,18.80
2024-05-28_19-20-38.461688,17.47
2024-05-28_19-20-38.494419,16.65
2024-05-28_19-20-38.527136,19.30
2024-05-28_19-20-38.555870,16.16
2024-05-28_19-20-38.588730,22.97
2024-05-28_19-20-38.621425,14.93
2024-05-28_19-20-38.654279,18.95
2024-05-28_19-20-38.686988,15.74
2024-05-28_19-20-38.719720,19.83
2024-05-28_19-20-38.752444,19.00
2024-05-28_19-20-38.781168,19.31
2024-05-28_19-20-38.813978,18.39
2024-05-28_19-20-38.846652,20.62
2024-05-28_19-20-38.879418,22.09
2024-05-28_19-20-38.912289,16.32
2024-05-28_19-20-38.944968,19.96
2024-05-28_19-20-38.977728,16.00
2024-05-28_19-20-39.010422,19.94
2024-05-28_19-20-39.039163,16.18
2024-05-28_19-20-39.071924,17.11
2024-05-28_19-20-39.104700,16.57
2024-05-28_19-20-39.137478,19.12
2024-05-28_19-20-39.170288,19.79
2024-05-28_19-20-39.202968,17.50
2024-05-28_19-20-39.235770,19.05
2024-05-28_19-20-39.264468,17.68
2024-05-28_19-20-39.297294,18.24
2024-05-28_19-20-39.329934,17.41
2024-05-28_19-20-39.362985,17.46
2024-05-28_19-20-39.395887,15.63
2024-05-28_19-20-39.428690,17.87
2024-05-28_19-20-39.461007,20.37
2024-05-28_19-20-39.489755,19.74
2024-05-28_19-20-39.522529,17.44
2024-05-28_19-20-39.555271,20.10
2024-05-28_19-20-39.588125,16.74
2024-05-28_19-20-39.620869,18.19
2024-05-28_19-20-39.653610,17.14
2024-05-28_19-20-39.686404,16.80
2024-05-28_19-20-39.719245,16.30
2024-05-28_19-20-39.747784,19.47
2024-05-28_19-20-39.780639,17.49
2024-05-28_19-20-39.813314,17.23
2024-05-28_19-20-39.846113,20.15
2024-05-28_19-20-39.878824,15.80
2024-05-28_19-20-39.911590,22.84
2024-05-28_19-20-39.944261,15.90
2024-05-28_19-20-39.973018,19.16
2024-05-28_19-20-40.005757,14.54
2024-05-28_19-20-40.038530,19.80
2024-05-28_19-20-40.071333,16.59
2024-05-28_19-20-40.104137,17.35
2024-05-28_19-20-40.136895,18.07
2024-05-28_19-20-40.169577,17.98
2024-05-28_19-20-40.198534,21.38
2024-05-28_19-20-40.231179,15.99
2024-05-28_19-20-40.264421,18.94
2024-05-28_19-20-40.296721,15.01
2024-05-28_19-20-40.329416,19.82
2024-05-28_19-20-40.362112,16.27
2024-05-28_19-20-40.394924,16.93
2024-05-28_19-20-40.427545,16.41
2024-05-28_19-20-40.456502,19.47
2024-05-28_19-20-40.489119,20.27
2024-05-28_19-20-40.521883,17.75
2024-05-28_19-20-40.554720,18.25
2024-05-28_19-20-40.587415,16.33
2024-05-28_19-20-40.620180,18.51
2024-05-28_19-20-40.652869,17.72
2024-05-28_19-20-40.681638,17.52
2024-05-28_19-20-40.714351,15.78
2024-05-28_19-20-40.747212,17.56
2024-05-28_19-20-40.782541,19.86
2024-05-28_19-20-40.824615,19.17
2024-05-28_19-20-40.848514,17.54
2024-05-28_19-20-40.878210,19.00
2024-05-28_19-20-40.906892,16.83
2024-05-28_19-20-40.939624,19.25
2024-05-28_19-20-40.972379,17.67
2024-05-28_19-20-41.005213,17.29
2024-05-28_19-20-41.038030,16.66
2024-05-28_19-20-41.070689,18.91
2024-05-28_19-20-41.103390,18.49
2024-05-28_19-20-41.132090,19.62
2024-05-28_19-20-41.164816,17.68
2024-05-28_19-20-41.197683,19.81
2024-05-28_19-20-41.230419,19.76
2024-05-28_19-20-41.263237,17.64
2024-05-28_19-20-41.295926,17.41
2024-05-28_19-20-41.328673,18.10
2024-05-28_19-20-41.361374,17.56
2024-05-28_19-20-41.390139,19.09
2024-05-28_19-20-41.422949,16.53
2024-05-28_19-20-41.455691,18.98
2024-05-28_19-20-41.488401,17.20
2024-05-28_19-20-41.521238,22.12
2024-05-28_19-20-41.553938,18.08
2024-05-28_19-20-41.589213,17.29
2024-05-28_19-20-41.615436,18.37
2024-05-28_19-20-41.648208,18.07
2024-05-28_19-20-41.680921,18.92
2024-05-28_19-20-41.713685,15.98
2024-05-28_19-20-41.746477,17.63
2024-05-28_19-20-41.779439,16.88
2024-05-28_19-20-41.811931,22.40
2024-05-28_19-20-41.840642,16.37
