timestamp,EMG
2024-05-28_16-40-09.052915,"79.77,87.53"
2024-05-28_16-40-09.085385,"75.66,48.24"
2024-05-28_16-40-09.119539,"76.92,79.78"
2024-05-28_16-40-09.150809,"85.31,69.32"
2024-05-28_16-40-09.182391,"59.47,70.58"
2024-05-28_16-40-09.215078,"72.97,63.32"
2024-05-28_16-40-09.244529,"75.59,74.09"
2024-05-28_16-40-09.276583,"77.47,78.40"
2024-05-28_16-40-09.309388,"84.68,62.31"
2024-05-28_16-40-09.342317,"87.24,69.76"
2024-05-28_16-40-09.375238,"93.78,84.90"
2024-05-28_16-40-09.407606,"85.89,64.15"
2024-05-28_16-40-09.440242,"80.89,72.07"
2024-05-28_16-40-09.469087,"76.67,60.54"
2024-05-28_16-40-09.501785,"81.30,62.32"
2024-05-28_16-40-09.534645,"67.15,59.72"
2024-05-28_16-40-09.567338,"70.89,85.45"
2024-05-28_16-40-09.600113,"94.44,65.66"
2024-05-28_16-40-09.634613,"85.73,92.49"
2024-05-28_16-40-09.665586,"69.52,22.62"
2024-05-28_16-40-09.695513,"67.51,76.82"
2024-05-28_16-40-09.765279,"67.33,49.36"
2024-05-28_16-40-09.770459,"42.55,91.08"
2024-05-28_16-40-09.802853,"51.84,72.73"
2024-05-28_16-40-09.837620,"73.32,71.24"
2024-05-28_16-40-09.866330,"80.49,79.22"
2024-05-28_16-40-09.892448,"95.99,70.10"
2024-05-28_16-40-09.919813,"83.75,46.58"
2024-05-28_16-40-09.952494,"93.41,83.16"
2024-05-28_16-40-09.987717,"92.60,82.19"
2024-05-28_16-40-10.018205,"79.81,88.60"
2024-05-28_16-40-10.051126,"73.52,82.31"
2024-05-28_16-40-10.084087,"70.32,88.15"
2024-05-28_16-40-10.116326,"67.31,79.35"
2024-05-28_16-40-10.144858,"81.07,79.36"
2024-05-28_16-40-10.177643,"69.28,44.00"
2024-05-28_16-40-10.210600,"66.40,81.17"
2024-05-28_16-40-10.243212,"63.81,83.00"
2024-05-28_16-40-10.275830,"58.86,74.16"
2024-05-28_16-40-10.308808,"66.95,49.58"
2024-05-28_16-40-10.342535,"69.30,79.33"
2024-05-28_16-40-10.370149,"57.80,58.87"
2024-05-28_16-40-10.402830,"43.01,53.82"
2024-05-28_16-40-10.435613,"44.20,90.58"
2024-05-28_16-40-10.468355,"40.35,78.29"
2024-05-28_16-40-10.501258,"43.02,87.93"
2024-05-28_16-40-10.534056,"32.80,95.59"
2024-05-28_16-40-10.566650,"43.54,75.10"
2024-05-28_16-40-10.595307,"70.05,84.08"
2024-05-28_16-40-10.628273,"67.46,84.64"
2024-05-28_16-40-10.660850,"78.00,55.41"
2024-05-28_16-40-10.694043,"84.13,66.58"
2024-05-28_16-40-10.726408,"87.45,84.00"
2024-05-28_16-40-10.759124,"99.70,90.39"
2024-05-28_16-40-10.792121,"96.26,91.31"
2024-05-28_16-40-10.820865,"80.20,87.01"
2024-05-28_16-40-10.853394,"76.33,88.43"
2024-05-28_16-40-10.886129,"71.35,85.57"
2024-05-28_16-40-10.919745,"77.60,100.53"
2024-05-28_16-40-10.951750,"77.75,83.66"
2024-05-28_16-40-10.984480,"91.92,90.28"
2024-05-28_16-40-11.017129,"79.93,84.70"
2024-05-28_16-40-11.045880,"71.12,80.16"
2024-05-28_16-40-11.094681,"63.50,82.25"
2024-05-28_16-40-11.111455,"58.46,68.55"
2024-05-28_16-40-11.144175,"52.75,76.23"
2024-05-28_16-40-11.177007,"59.40,74.17"
2024-05-28_16-40-11.209839,"57.46,80.44"
2024-05-28_16-40-11.242422,"59.53,62.62"
2024-05-28_16-40-11.271167,"69.04,76.12"
2024-05-28_16-40-11.304946,"82.93,75.69"
2024-05-28_16-40-11.337062,"99.03,75.04"
2024-05-28_16-40-11.369426,"107.25,85.56"
2024-05-28_16-40-11.402328,"97.63,80.21"
2024-05-28_16-40-11.435055,"96.09,79.43"
2024-05-28_16-40-11.467932,"99.33,83.40"
2024-05-28_16-40-11.496391,"92.06,84.23"
2024-05-28_16-40-11.529187,"90.90,100.29"
2024-05-28_16-40-11.561974,"80.56,83.61"
2024-05-28_16-40-11.594932,"82.10,58.02"
2024-05-28_16-40-11.627474,"93.10,65.90"
2024-05-28_16-40-11.660254,"95.84,84.61"
2024-05-28_16-40-11.692945,"95.06,75.54"
2024-05-28_16-40-11.721807,"98.00,75.99"
2024-05-28_16-40-11.754465,"103.87,76.63"
2024-05-28_16-40-11.787503,"96.86,82.72"
2024-05-28_16-40-11.838970,"98.39,93.87"
2024-05-28_16-40-11.852973,"90.03,81.18"
2024-05-28_16-40-11.885656,"87.22,84.98"
2024-05-28_16-40-11.918220,"93.84,93.91"
2024-05-28_16-40-11.946995,"84.24,79.27"
2024-05-28_16-40-11.980048,"85.60,63.08"
2024-05-28_16-40-12.012624,"91.44,74.66"
2024-05-28_16-40-12.045266,"95.38,75.49"
2024-05-28_16-40-12.078038,"102.52,75.22"
2024-05-28_16-40-12.110801,"100.14,92.32"
2024-05-28_16-40-12.143488,"93.87,81.93"
2024-05-28_16-40-12.176256,"87.67,69.82"
2024-05-28_16-40-12.205595,"88.57,66.88"
2024-05-28_16-40-12.238186,"52.57,84.21"
2024-05-28_16-40-12.270562,"83.22,93.70"
2024-05-28_16-40-12.303331,"84.10,70.72"
2024-05-28_16-40-12.336258,"78.40,71.11"
2024-05-28_16-40-12.368836,"102.93,72.32"
2024-05-28_16-40-12.401656,"106.04,83.92"
2024-05-28_16-40-12.430610,"102.14,76.05"
2024-05-28_16-40-12.463043,"96.01,79.53"
2024-05-28_16-40-12.495826,"99.66,82.65"
2024-05-28_16-40-12.528581,"91.99,89.30"
2024-05-28_16-40-12.561320,"85.17,66.36"
2024-05-28_16-40-12.594128,"80.75,57.74"
2024-05-28_16-40-12.626698,"47.48,90.21"
2024-05-28_16-40-12.655789,"61.12,94.92"
2024-05-28_16-40-12.688481,"65.31,65.98"
2024-05-28_16-40-12.721062,"82.54,70.80"
2024-05-28_16-40-12.753856,"92.01,72.67"
2024-05-28_16-40-12.786840,"105.79,76.06"
2024-05-28_16-40-12.819335,"101.55,79.49"
2024-05-28_16-40-12.852012,"98.45,93.08"
2024-05-28_16-40-12.881058,"91.35,88.34"
2024-05-28_16-40-12.913698,"91.41,63.19"
2024-05-28_16-40-12.946298,"79.51,60.28"
2024-05-28_16-40-12.979126,"50.14,104.72"
2024-05-28_16-40-13.011943,"58.25,89.53"
2024-05-28_16-40-13.044625,"75.17,61.81"
2024-05-28_16-40-13.077261,"60.21,59.87"
2024-05-28_16-40-13.106153,"115.55,70.21"
2024-05-28_16-40-13.138824,"112.19,84.39"
2024-05-28_16-40-13.171659,"102.61,76.02"
2024-05-28_16-40-13.204367,"96.38,83.21"
2024-05-28_16-40-13.237174,"99.11,82.53"
2024-05-28_16-40-13.269863,"92.80,89.73"
2024-05-28_16-40-13.302544,"96.13,84.14"
2024-05-28_16-40-13.331457,"63.25,85.49"
2024-05-28_16-40-13.364136,"46.78,91.17"
2024-05-28_16-40-13.396891,"86.65,80.26"
2024-05-28_16-40-13.429640,"95.47,65.98"
2024-05-28_16-40-13.462446,"111.64,70.25"
2024-05-28_16-40-13.495096,"106.31,74.20"
2024-05-28_16-40-13.527833,"103.57,77.23"
2024-05-28_16-40-13.556662,"99.08,80.30"
2024-05-28_16-40-13.589349,"97.21,95.56"
2024-05-28_16-40-13.622250,"91.03,78.28"
2024-05-28_16-40-13.654908,"92.64,47.32"
2024-05-28_16-40-13.687970,"46.58,81.95"
2024-05-28_16-40-13.720382,"61.51,97.78"
2024-05-28_16-40-13.753134,"61.45,66.82"
2024-05-28_16-40-13.781871,"85.37,64.55"
2024-05-28_16-40-13.814698,"96.96,72.64"
2024-05-28_16-40-13.847472,"109.03,74.89"
2024-05-28_16-40-13.880262,"103.24,90.06"
2024-05-28_16-40-13.912966,"93.09,83.03"
2024-05-28_16-40-13.945775,"91.30,76.34"
2024-05-28_16-40-13.983404,"100.92,62.45"
2024-05-28_16-40-14.007156,"67.33,62.28"
2024-05-28_16-40-14.039901,"52.85,96.58"
2024-05-28_16-40-14.072690,"55.50,88.32"
2024-05-28_16-40-14.105641,"78.21,74.84"
2024-05-28_16-40-14.138258,"86.28,58.73"
2024-05-28_16-40-14.170995,"104.06,81.79"
2024-05-28_16-40-14.203783,"104.93,75.61"
2024-05-28_16-40-14.233304,"99.67,76.87"
2024-05-28_16-40-14.265199,"99.40,82.50"
2024-05-28_16-40-14.298003,"94.32,86.99"
2024-05-28_16-40-14.330737,"95.49,77.42"
2024-05-28_16-40-14.363503,"80.60,61.89"
2024-05-28_16-40-14.396272,"47.83,78.90"
2024-05-28_16-40-14.428936,"49.02,99.11"
2024-05-28_16-40-14.457725,"84.93,78.49"
2024-05-28_16-40-14.490457,"54.41,59.52"
2024-05-28_16-40-14.523224,"95.17,72.07"
2024-05-28_16-40-14.556102,"113.59,73.40"
2024-05-28_16-40-14.588760,"104.34,76.72"
2024-05-28_16-40-14.621588,"100.91,91.42"
2024-05-28_16-40-14.654331,"92.14,85.57"
2024-05-28_16-40-14.686912,"91.05,63.74"
2024-05-28_16-40-14.715821,"91.80,62.15"
2024-05-28_16-40-14.748562,"49.28,92.48"
2024-05-28_16-40-14.781269,"55.94,99.84"
2024-05-28_16-40-14.814046,"71.16,58.61"
2024-05-28_16-40-14.846817,"97.58,71.21"
2024-05-28_16-40-14.879533,"113.32,74.05"
2024-05-28_16-40-14.912206,"103.49,88.67"
2024-05-28_16-40-14.941135,"92.08,85.36"
2024-05-28_16-40-14.973790,"91.47,86.77"
2024-05-28_16-40-15.006642,"97.69,72.78"
2024-05-28_16-40-15.039263,"94.99,85.67"
2024-05-28_16-40-15.072117,"95.77,87.43"
2024-05-28_16-40-15.105017,"90.00,66.31"
2024-05-28_16-40-15.137592,"82.39,59.45"
2024-05-28_16-40-15.166274,"74.27,80.27"
2024-05-28_16-40-15.199092,"73.99,87.84"
2024-05-28_16-40-15.231806,"90.90,71.66"
2024-05-28_16-40-15.264643,"97.93,79.17"
2024-05-28_16-40-15.297357,"97.28,71.52"
2024-05-28_16-40-15.330045,"108.55,73.81"
2024-05-28_16-40-15.362752,"95.11,89.85"
2024-05-28_16-40-15.391569,"89.99,78.68"
2024-05-28_16-40-15.424317,"76.10,78.99"
2024-05-28_16-40-15.457185,"85.61,75.16"
2024-05-28_16-40-15.489895,"58.42,77.88"
2024-05-28_16-40-15.522656,"54.29,72.24"
2024-05-28_16-40-15.555383,"47.10,68.38"
2024-05-28_16-40-15.588049,"64.23,71.32"
2024-05-28_16-40-15.616854,"72.53,80.57"
2024-05-28_16-40-15.649603,"65.98,81.49"
2024-05-28_16-40-15.682383,"93.72,69.87"
2024-05-28_16-40-15.715160,"68.88,59.66"
2024-05-28_16-40-15.747876,"72.00,50.12"
2024-05-28_16-40-15.780596,"103.14,67.40"
2024-05-28_16-40-15.813346,"98.04,72.59"
2024-05-28_16-40-15.842127,"80.61,67.84"
2024-05-28_16-40-15.874852,"83.46,69.46"
2024-05-28_16-40-15.907632,"82.08,74.47"
2024-05-28_16-40-15.940392,"97.32,68.73"
2024-05-28_16-40-15.973154,"59.45,68.67"
2024-05-28_16-40-16.006101,"81.51,81.49"
2024-05-28_16-40-16.038592,"66.35,81.49"
2024-05-28_16-40-16.067409,"81.11,87.78"
2024-05-28_16-40-16.100180,"61.95,78.15"
2024-05-28_16-40-16.133100,"69.64,63.37"
2024-05-28_16-40-16.165741,"85.04,81.26"
2024-05-28_16-40-16.198706,"90.90,83.52"
2024-05-28_16-40-16.231236,"77.28,54.32"
2024-05-28_16-40-16.264491,"74.16,92.09"
2024-05-28_16-40-16.292651,"37.11,78.98"
2024-05-28_16-40-16.325438,"36.21,83.10"
2024-05-28_16-40-16.358216,"72.32,62.62"
2024-05-28_16-40-16.392090,"52.95,82.96"
2024-05-28_16-40-16.423756,"56.23,93.67"
2024-05-28_16-40-16.456576,"51.71,95.22"
2024-05-28_16-40-16.489100,"43.00,74.52"
2024-05-28_16-40-16.517929,"58.85,64.65"
2024-05-28_16-40-16.550709,"54.87,74.50"
2024-05-28_16-40-16.583557,"57.07,99.38"
2024-05-28_16-40-16.616223,"50.48,94.89"
2024-05-28_16-40-16.649046,"50.58,81.05"
2024-05-28_16-40-16.681783,"41.40,81.34"
2024-05-28_16-40-16.714441,"45.29,73.48"
2024-05-28_16-40-16.743176,"69.34,66.46"
2024-05-28_16-40-16.775972,"63.18,69.72"
2024-05-28_16-40-16.808789,"56.89,64.27"
2024-05-28_16-40-16.841521,"64.64,80.92"
2024-05-28_16-40-16.874245,"72.30,58.19"
2024-05-28_16-40-16.907070,"92.21,63.85"
2024-05-28_16-40-16.939749,"100.34,98.81"
2024-05-28_16-40-16.968462,"90.05,49.01"
2024-05-28_16-40-17.001356,"74.26,91.19"
2024-05-28_16-40-17.033984,"75.15,85.60"
2024-05-28_16-40-17.066828,"90.35,83.79"
2024-05-28_16-40-17.099547,"58.93,75.89"
2024-05-28_16-40-17.132277,"75.02,62.11"
2024-05-28_16-40-17.164993,"97.13,62.01"
2024-05-28_16-40-17.193740,"67.69,43.08"
2024-05-28_16-40-17.226502,"76.85,74.14"
2024-05-28_16-40-17.259296,"74.96,55.17"
2024-05-28_16-40-17.292054,"80.68,67.20"
2024-05-28_16-40-17.324811,"78.84,77.14"
2024-05-28_16-40-17.357601,"69.86,86.84"
2024-05-28_16-40-17.390252,"65.67,81.63"
2024-05-28_16-40-17.419030,"88.37,77.26"
2024-05-28_16-40-17.451850,"81.25,82.37"
2024-05-28_16-40-17.484514,"78.51,93.11"
2024-05-28_16-40-17.517334,"66.88,60.01"
2024-05-28_16-40-17.550111,"79.26,85.16"
2024-05-28_16-40-17.583102,"81.55,49.08"
2024-05-28_16-40-17.615524,"83.63,67.01"
2024-05-28_16-40-17.644324,"61.23,79.90"
2024-05-28_16-40-17.677055,"88.54,82.42"
2024-05-28_16-40-17.709897,"83.31,44.96"
2024-05-28_16-40-17.742590,"91.26,53.60"
2024-05-28_16-40-17.775358,"60.04,30.76"
2024-05-28_16-40-17.808215,"84.95,32.24"
2024-05-28_16-40-17.840846,"72.09,52.52"
2024-05-28_16-40-17.869613,"82.62,79.43"
2024-05-28_16-40-17.902365,"58.66,90.73"
2024-05-28_16-40-17.935744,"60.34,72.35"
2024-05-28_16-40-17.967859,"76.01,79.20"
2024-05-28_16-40-18.000615,"70.41,72.07"
2024-05-28_16-40-18.033366,"80.27,86.82"
2024-05-28_16-40-18.066096,"90.42,77.24"
2024-05-28_16-40-18.098808,"83.02,65.18"
2024-05-28_16-40-18.127584,"76.64,61.39"
2024-05-28_16-40-18.160392,"68.59,74.35"
2024-05-28_16-40-18.193172,"63.64,70.47"
2024-05-28_16-40-18.225910,"46.60,67.52"
2024-05-28_16-40-18.258702,"61.81,81.00"
2024-05-28_16-40-18.291379,"44.25,60.36"
2024-05-28_16-40-18.324209,"78.14,76.15"
2024-05-28_16-40-18.352919,"79.82,52.60"
2024-05-28_16-40-18.385616,"101.20,84.37"
2024-05-28_16-40-18.425507,"75.16,72.85"
2024-05-28_16-40-18.451262,"75.81,75.18"
2024-05-28_16-40-18.484276,"71.49,64.52"
2024-05-28_16-40-18.516863,"74.06,60.83"
2024-05-28_16-40-18.549422,"79.00,62.67"
2024-05-28_16-40-18.578109,"82.66,42.06"
2024-05-28_16-40-18.610897,"59.37,61.79"
2024-05-28_16-40-18.643799,"78.36,74.79"
2024-05-28_16-40-18.676481,"64.68,72.55"
2024-05-28_16-40-18.709237,"90.08,76.55"
2024-05-28_16-40-18.741982,"73.54,76.75"
2024-05-28_16-40-18.774660,"65.10,72.60"
2024-05-28_16-40-18.803494,"87.24,45.29"
2024-05-28_16-40-18.836371,"60.87,59.86"
2024-05-28_16-40-18.868994,"63.44,42.60"
2024-05-28_16-40-18.901791,"47.20,68.59"
2024-05-28_16-40-18.934454,"37.00,69.15"
2024-05-28_16-40-18.967261,"57.36,69.54"
2024-05-28_16-40-18.999889,"35.94,77.13"
2024-05-28_16-40-19.028690,"32.64,69.09"
2024-05-28_16-40-19.061465,"69.07,70.56"
2024-05-28_16-40-19.094226,"91.52,82.25"
2024-05-28_16-40-19.127009,"72.60,70.37"
2024-05-28_16-40-19.159791,"67.23,69.27"
2024-05-28_16-40-19.192516,"56.60,61.18"
2024-05-28_16-40-19.225189,"54.35,65.68"
2024-05-28_16-40-19.254006,"58.65,69.89"
2024-05-28_16-40-19.286705,"62.42,72.48"
2024-05-28_16-40-19.319456,"68.61,70.94"
2024-05-28_16-40-19.353505,"75.95,61.09"
2024-05-28_16-40-19.385022,"72.08,74.55"
2024-05-28_16-40-19.417850,"61.22,73.27"
2024-05-28_16-40-19.450504,"62.65,72.17"
2024-05-28_16-40-19.479258,"91.29,87.97"
2024-05-28_16-40-19.512060,"93.25,83.50"
2024-05-28_16-40-19.544823,"91.99,80.41"
2024-05-28_16-40-19.577524,"87.41,89.11"
2024-05-28_16-40-19.610369,"79.26,71.35"
2024-05-28_16-40-19.643053,"75.44,57.30"
2024-05-28_16-40-19.675852,"80.35,66.89"
2024-05-28_16-40-19.704532,"68.61,75.62"
2024-05-28_16-40-19.737268,"60.34,72.83"
2024-05-28_16-40-19.770067,"54.04,81.92"
2024-05-28_16-40-19.802914,"68.93,82.32"
2024-05-28_16-40-19.835851,"78.58,76.70"
2024-05-28_16-40-19.868392,"98.13,89.62"
2024-05-28_16-40-19.901110,"101.17,89.15"
2024-05-28_16-40-19.929780,"86.79,79.95"
2024-05-28_16-40-19.962995,"74.35,58.60"
2024-05-28_16-40-19.995342,"75.86,61.74"
2024-05-28_16-40-20.028104,"87.60,68.16"
2024-05-28_16-40-20.060896,"68.24,84.39"
2024-05-28_16-40-20.094884,"61.06,72.59"
2024-05-28_16-40-20.126312,"45.62,73.55"
2024-05-28_16-40-20.155092,"58.07,71.59"
2024-05-28_16-40-20.189589,"83.56,88.50"
2024-05-28_16-40-20.220660,"102.40,94.33"
2024-05-28_16-40-20.253373,"94.51,81.91"
2024-05-28_16-40-20.286114,"82.40,79.62"
2024-05-28_16-40-20.318914,"83.06,69.03"
2024-05-28_16-40-20.351737,"77.28,61.30"
2024-05-28_16-40-20.380396,"76.91,74.69"
2024-05-28_16-40-20.413133,"54.58,75.17"
2024-05-28_16-40-20.445899,"57.73,74.91"
2024-05-28_16-40-20.478654,"47.19,71.78"
2024-05-28_16-40-20.511479,"61.82,79.59"
2024-05-28_16-40-20.544235,"81.50,87.42"
2024-05-28_16-40-20.576860,"93.17,84.92"
2024-05-28_16-40-20.605759,"95.82,84.59"
2024-05-28_16-40-20.638445,"90.88,85.56"
2024-05-28_16-40-20.674803,"80.97,69.02"
2024-05-28_16-40-20.703942,"72.40,56.47"
2024-05-28_16-40-20.736701,"76.43,65.46"
2024-05-28_16-40-20.769474,"77.95,76.17"
2024-05-28_16-40-20.802260,"72.82,84.97"
2024-05-28_16-40-20.830915,"45.66,71.91"
2024-05-28_16-40-20.863672,"49.14,72.19"
2024-05-28_16-40-20.896570,"61.60,72.46"
2024-05-28_16-40-20.929400,"81.41,79.55"
2024-05-28_16-40-20.961983,"102.51,88.36"
2024-05-28_16-40-20.994769,"91.18,77.66"
2024-05-28_16-40-21.027432,"80.11,69.14"
2024-05-28_16-40-21.060317,"82.17,59.03"
2024-05-28_16-40-21.091537,"76.06,73.77"
2024-05-28_16-40-21.122697,"77.10,76.76"
2024-05-28_16-40-21.162322,"54.67,74.67"
2024-05-28_16-40-21.190143,"57.47,74.77"
2024-05-28_16-40-21.220572,"46.31,71.97"
2024-05-28_16-40-21.253086,"59.28,79.49"
2024-05-28_16-40-21.285659,"80.00,84.27"
2024-05-28_16-40-21.314211,"90.77,80.98"
2024-05-28_16-40-21.361972,"97.82,83.87"
2024-05-28_16-40-21.393332,"93.58,85.93"
2024-05-28_16-40-21.412611,"82.42,67.80"
2024-05-28_16-40-21.445494,"72.65,54.27"
2024-05-28_16-40-21.478015,"76.32,68.01"
2024-05-28_16-40-21.510761,"78.11,76.13"
2024-05-28_16-40-21.539679,"73.24,84.66"
2024-05-28_16-40-21.572390,"45.69,71.91"
2024-05-28_16-40-21.605201,"48.92,71.61"
2024-05-28_16-40-21.637876,"76.19,84.25"
2024-05-28_16-40-21.670579,"80.66,76.73"
2024-05-28_16-40-21.703284,"102.97,86.72"
2024-05-28_16-40-21.735959,"89.09,78.08"
2024-05-28_16-40-21.765063,"79.07,53.73"
2024-05-28_16-40-21.797551,"81.99,62.26"
2024-05-28_16-40-21.830318,"76.15,78.05"
2024-05-28_16-40-21.863229,"77.93,76.60"
2024-05-28_16-40-21.895914,"55.99,74.32"
2024-05-28_16-40-21.928564,"59.59,74.25"
2024-05-28_16-40-21.961293,"49.94,72.06"
2024-05-28_16-40-21.990063,"78.00,88.63"
2024-05-28_16-40-22.024146,"81.15,80.38"
2024-05-28_16-40-22.055889,"100.05,84.33"
2024-05-28_16-40-22.088724,"70.72,93.59"
2024-05-28_16-40-22.121211,"56.58,69.99"
2024-05-28_16-40-22.153934,"56.96,81.67"
2024-05-28_16-40-22.186656,"59.27,65.74"
2024-05-28_16-40-22.215379,"61.13,58.43"
2024-05-28_16-40-22.248179,"66.00,57.17"
2024-05-28_16-40-22.280893,"56.77,65.66"
2024-05-28_16-40-22.313697,"65.95,74.56"
2024-05-28_16-40-22.346405,"71.60,65.23"
2024-05-28_16-40-22.379104,"58.09,77.28"
2024-05-28_16-40-22.411853,"79.25,76.78"
2024-05-28_16-40-22.440561,"80.31,63.08"
2024-05-28_16-40-22.473373,"61.42,70.12"
2024-05-28_16-40-22.506283,"59.97,92.74"
2024-05-28_16-40-22.539026,"59.70,61.28"
2024-05-28_16-40-22.571677,"60.79,70.05"
2024-05-28_16-40-22.604406,"33.21,82.70"
2024-05-28_16-40-22.637126,"28.29,84.03"
2024-05-28_16-40-22.665908,"33.88,75.18"
2024-05-28_16-40-22.699893,"34.26,61.84"
2024-05-28_16-40-22.731447,"28.35,86.53"
2024-05-28_16-40-22.764202,"45.65,82.79"
2024-05-28_16-40-22.797006,"69.27,85.30"
2024-05-28_16-40-22.829658,"75.16,46.94"
2024-05-28_16-40-22.862342,"74.07,83.04"
2024-05-28_16-40-22.891109,"62.38,78.22"
2024-05-28_16-40-22.923978,"59.23,74.48"
2024-05-28_16-40-22.956901,"69.38,61.83"
2024-05-28_16-40-22.994896,"85.05,55.62"
2024-05-28_16-40-23.025685,"79.21,69.63"
2024-05-28_16-40-23.058107,"69.67,83.79"
2024-05-28_16-40-23.087908,"89.33,58.85"
2024-05-28_16-40-23.116443,"70.65,47.09"
2024-05-28_16-40-23.149290,"73.55,74.34"
2024-05-28_16-40-23.182895,"86.10,63.39"
2024-05-28_16-40-23.217436,"82.12,86.87"
2024-05-28_16-40-23.247505,"83.52,74.19"
2024-05-28_16-40-23.280310,"75.99,58.27"
2024-05-28_16-40-23.312906,"74.65,59.97"
2024-05-28_16-40-23.341952,"85.03,57.00"
2024-05-28_16-40-23.374497,"65.70,66.12"
2024-05-28_16-40-23.407268,"75.58,78.99"
2024-05-28_16-40-23.439997,"79.93,52.73"
2024-05-28_16-40-23.472777,"77.33,60.36"
2024-05-28_16-40-23.505582,"81.05,51.76"
2024-05-28_16-40-23.538234,"89.45,52.67"
2024-05-28_16-40-23.566991,"80.27,54.27"
2024-05-28_16-40-23.599815,"90.13,74.22"
2024-05-28_16-40-23.632537,"81.80,79.89"
2024-05-28_16-40-23.665262,"64.56,62.51"
2024-05-28_16-40-23.698136,"85.85,75.77"
2024-05-28_16-40-23.730820,"65.78,74.36"
2024-05-28_16-40-23.763521,"75.15,68.06"
2024-05-28_16-40-23.796194,"89.70,30.49"
2024-05-28_16-40-23.825018,"83.69,17.87"
2024-05-28_16-40-23.857936,"80.05,19.48"
2024-05-28_16-40-23.890523,"71.39,50.52"
2024-05-28_16-40-23.923330,"61.54,67.20"
2024-05-28_16-40-23.956098,"85.63,55.35"
2024-05-28_16-40-23.988878,"90.13,67.05"
2024-05-28_16-40-24.017616,"96.55,82.08"
2024-05-28_16-40-24.050313,"77.79,77.23"
2024-05-28_16-40-24.083113,"72.34,82.80"
2024-05-28_16-40-24.116038,"64.83,62.96"
2024-05-28_16-40-24.148679,"71.18,33.07"
2024-05-28_16-40-24.181382,"53.16,60.94"
2024-05-28_16-40-24.214129,"57.74,41.07"
2024-05-28_16-40-24.246784,"66.24,55.58"
2024-05-28_16-40-24.275584,"63.25,55.92"
2024-05-28_16-40-24.311174,"73.41,75.41"
2024-05-28_16-40-24.341118,"80.14,78.64"
2024-05-28_16-40-24.373932,"91.06,72.16"
2024-05-28_16-40-24.406706,"79.65,58.03"
2024-05-28_16-40-24.439363,"80.26,31.10"
2024-05-28_16-40-24.472084,"69.90,33.54"
2024-05-28_16-40-24.500961,"66.34,31.82"
2024-05-28_16-40-24.533776,"67.64,33.28"
2024-05-28_16-40-24.566438,"70.80,33.73"
2024-05-28_16-40-24.599231,"73.05,82.46"
2024-05-28_16-40-24.631950,"64.74,52.77"
2024-05-28_16-40-24.664667,"71.11,72.52"
2024-05-28_16-40-24.697318,"66.25,49.05"
2024-05-28_16-40-24.726142,"77.41,90.28"
2024-05-28_16-40-24.758966,"89.92,78.07"
2024-05-28_16-40-24.791688,"79.43,56.56"
2024-05-28_16-40-24.824466,"70.21,31.23"
2024-05-28_16-40-24.857399,"66.42,36.10"
2024-05-28_16-40-24.889934,"71.52,32.98"
2024-05-28_16-40-24.922645,"69.87,31.68"
2024-05-28_16-40-24.951459,"70.31,33.33"
2024-05-28_16-40-24.984162,"68.69,56.87"
2024-05-28_16-40-25.017034,"63.57,65.08"
2024-05-28_16-40-25.049709,"77.10,85.19"
2024-05-28_16-40-25.082562,"64.64,63.47"
2024-05-28_16-40-25.115215,"73.60,52.58"
2024-05-28_16-40-25.147941,"71.89,35.49"
2024-05-28_16-40-25.176695,"74.72,31.49"
2024-05-28_16-40-25.209441,"65.02,32.89"
2024-05-28_16-40-25.242207,"67.59,32.46"
2024-05-28_16-40-25.275060,"73.31,59.44"
2024-05-28_16-40-25.307789,"57.87,45.93"
2024-05-28_16-40-25.348533,"72.82,74.88"
2024-05-28_16-40-25.373240,"65.36,82.00"
2024-05-28_16-40-25.402022,"68.95,78.82"
2024-05-28_16-40-25.434715,"67.29,81.45"
2024-05-28_16-40-25.467574,"71.32,69.91"
2024-05-28_16-40-25.500321,"80.60,54.94"
2024-05-28_16-40-25.533755,"78.44,32.65"
2024-05-28_16-40-25.565795,"71.48,30.71"
2024-05-28_16-40-25.598566,"66.93,35.91"
2024-05-28_16-40-25.627307,"72.72,76.29"
2024-05-28_16-40-25.660136,"62.17,37.06"
2024-05-28_16-40-25.692814,"95.36,76.21"
2024-05-28_16-40-25.725565,"79.16,76.05"
2024-05-28_16-40-25.758408,"80.65,50.69"
2024-05-28_16-40-25.791094,"68.99,49.07"
2024-05-28_16-40-25.823735,"91.28,33.77"
2024-05-28_16-40-25.852591,"90.34,33.16"
2024-05-28_16-40-25.885325,"85.75,32.30"
2024-05-28_16-40-25.918137,"89.77,68.54"
2024-05-28_16-40-25.950869,"105.38,58.60"
2024-05-28_16-40-25.983544,"86.69,87.83"
2024-05-28_16-40-26.016342,"74.61,83.53"
2024-05-28_16-40-26.049072,"71.82,83.61"
2024-05-28_16-40-26.077841,"46.92,75.18"
2024-05-28_16-40-26.110569,"36.01,80.62"
2024-05-28_16-40-26.143334,"44.67,67.50"
2024-05-28_16-40-26.176107,"68.41,83.67"
2024-05-28_16-40-26.208884,"34.25,68.45"
2024-05-28_16-40-26.241641,"24.20,78.66"
2024-05-28_16-40-26.274337,"63.08,54.23"
2024-05-28_16-40-26.303129,"82.82,30.16"
2024-05-28_16-40-26.335831,"23.07,26.69"
2024-05-28_16-40-26.368598,"13.83,28.02"
2024-05-28_16-40-26.401417,"14.29,27.84"
2024-05-28_16-40-26.434306,"43.70,53.57"
2024-05-28_16-40-26.466920,"55.82,63.64"
2024-05-28_16-40-26.499641,"60.49,66.16"
2024-05-28_16-40-26.528368,"62.62,87.03"
2024-05-28_16-40-26.561137,"70.93,60.37"
2024-05-28_16-40-26.593928,"66.59,58.61"
2024-05-28_16-40-26.626663,"67.06,50.16"
2024-05-28_16-40-26.659479,"60.42,49.09"
2024-05-28_16-40-26.692540,"60.13,76.09"
2024-05-28_16-40-26.724884,"60.87,63.38"
2024-05-28_16-40-26.753696,"40.01,60.29"
2024-05-28_16-40-26.786381,"28.48,60.38"
2024-05-28_16-40-26.819188,"24.71,58.08"
2024-05-28_16-40-26.851945,"28.89,58.86"
2024-05-28_16-40-26.885901,"75.36,64.79"
2024-05-28_16-40-26.917560,"78.21,59.31"
2024-05-28_16-40-26.950178,"71.58,68.01"
2024-05-28_16-40-26.982850,"55.62,58.60"
2024-05-28_16-40-27.011866,"40.50,55.05"
2024-05-28_16-40-27.044457,"30.33,53.46"
2024-05-28_16-40-27.077233,"26.31,55.93"
2024-05-28_16-40-27.110044,"23.55,48.18"
2024-05-28_16-40-27.142755,"20.29,49.45"
2024-05-28_16-40-27.175505,"55.69,62.64"
2024-05-28_16-40-27.208167,"75.12,45.05"
2024-05-28_16-40-27.237207,"85.55,53.78"
2024-05-28_16-40-27.269772,"56.11,46.88"
2024-05-28_16-40-27.302539,"57.77,48.78"
2024-05-28_16-40-27.335255,"32.28,51.86"
2024-05-28_16-40-27.368044,"46.04,47.86"
2024-05-28_16-40-27.400847,"56.64,49.75"
2024-05-28_16-40-27.433982,"47.48,44.66"
2024-05-28_16-40-27.462253,"25.25,47.95"
2024-05-28_16-40-27.495063,"18.65,48.56"
2024-05-28_16-40-27.527796,"82.84,52.24"
2024-05-28_16-40-27.560571,"61.92,38.90"
2024-05-28_16-40-27.593362,"14.59,38.34"
2024-05-28_16-40-27.626014,"12.31,42.57"
2024-05-28_16-40-27.661542,"14.49,37.52"
2024-05-28_16-40-27.687497,"11.57,40.08"
2024-05-28_16-40-27.720306,"12.34,36.95"
2024-05-28_16-40-27.753094,"12.42,39.20"
2024-05-28_16-40-27.785805,"12.80,41.53"
2024-05-28_16-40-27.818621,"11.25,40.92"
2024-05-28_16-40-27.851333,"9.35,38.83"
2024-05-28_16-40-27.883981,"8.81,43.12"
2024-05-28_16-40-27.912854,"62.40,38.35"
2024-05-28_16-40-27.945586,"15.35,37.76"
2024-05-28_16-40-27.978416,"12.61,42.04"
2024-05-28_16-40-28.011223,"12.33,39.72"
2024-05-28_16-40-28.044068,"14.33,38.55"
2024-05-28_16-40-28.076639,"13.16,50.05"
2024-05-28_16-40-28.109412,"11.43,54.90"
2024-05-28_16-40-28.138377,"12.64,49.49"
2024-05-28_16-40-28.170882,"8.67,54.23"
2024-05-28_16-40-28.203655,"11.52,54.55"
2024-05-28_16-40-28.236351,"6.50,62.10"
2024-05-28_16-40-28.269217,"9.55,56.43"
2024-05-28_16-40-28.301900,"13.23,52.29"
2024-05-28_16-40-28.334955,"11.15,52.03"
2024-05-28_16-40-28.363369,"15.01,68.37"
2024-05-28_16-40-28.396210,"14.46,52.24"
2024-05-28_16-40-28.428921,"11.47,59.14"
2024-05-28_16-40-28.461733,"46.91,53.02"
2024-05-28_16-40-28.494440,"45.97,53.15"
2024-05-28_16-40-28.527148,"45.54,58.25"
2024-05-28_16-40-28.559911,"45.93,59.85"
2024-05-28_16-40-28.588662,"11.21,50.26"
2024-05-28_16-40-28.621422,"60.51,52.84"
2024-05-28_16-40-28.654283,"49.88,44.20"
2024-05-28_16-40-28.686949,"15.58,48.37"
2024-05-28_16-40-28.719871,"15.07,57.79"
2024-05-28_16-40-28.752456,"13.28,50.18"
2024-05-28_16-40-28.785157,"12.55,46.48"
2024-05-28_16-40-28.813996,"11.62,50.45"
2024-05-28_16-40-28.846699,"11.66,42.87"
2024-05-28_16-40-28.879507,"11.14,42.84"
2024-05-28_16-40-28.912260,"11.23,45.16"
2024-05-28_16-40-28.945011,"9.83,40.33"
2024-05-28_16-40-28.977719,"9.25,41.90"
2024-05-28_16-40-29.010454,"13.43,37.58"
2024-05-28_16-40-29.039227,"13.34,37.29"
2024-05-28_16-40-29.072063,"12.24,35.72"
2024-05-28_16-40-29.104770,"12.54,44.74"
2024-05-28_16-40-29.137490,"18.48,48.27"
2024-05-28_16-40-29.170314,"12.32,58.11"
2024-05-28_16-40-29.203100,"13.70,40.57"
2024-05-28_16-40-29.235697,"8.87,38.09"
2024-05-28_16-40-29.264526,"9.03,42.83"
2024-05-28_16-40-29.297279,"11.22,36.81"
2024-05-28_16-40-29.330082,"8.53,38.75"
2024-05-28_16-40-29.362822,"11.85,36.25"
2024-05-28_16-40-29.395613,"12.71,35.84"
2024-05-28_16-40-29.428375,"11.55,36.15"
2024-05-28_16-40-29.461047,"13.25,41.35"
2024-05-28_16-40-29.489821,"13.17,39.13"
2024-05-28_16-40-29.522585,"12.57,39.15"
2024-05-28_16-40-29.555399,"12.68,43.04"
2024-05-28_16-40-29.588182,"13.39,42.00"
2024-05-28_16-40-29.620844,"11.68,45.00"
2024-05-28_16-40-29.653646,"43.15,38.25"
2024-05-28_16-40-29.686325,"60.23,42.59"
2024-05-28_16-40-29.715086,"49.18,37.53"
2024-05-28_16-40-29.747859,"11.93,42.84"
2024-05-28_16-40-29.780594,"14.72,36.13"
2024-05-28_16-40-29.813379,"12.20,38.25"
2024-05-28_16-40-29.846175,"12.59,39.59"
2024-05-28_16-40-29.884808,"14.13,39.19"
2024-05-28_16-40-29.911623,"11.24,37.72"
2024-05-28_16-40-29.940314,"11.84,40.25"
2024-05-28_16-40-29.973123,"10.04,42.60"
2024-05-28_16-40-30.006108,"10.57,42.57"
2024-05-28_16-40-30.038625,"12.34,44.44"
2024-05-28_16-40-30.071394,"7.50,37.71"
2024-05-28_16-40-30.104220,"50.57,37.70"
2024-05-28_16-40-30.136863,"13.97,36.73"
2024-05-28_16-40-30.165633,"13.37,37.42"
2024-05-28_16-40-30.198385,"12.76,41.37"
2024-05-28_16-40-30.231156,"12.15,40.50"
2024-05-28_16-40-30.263984,"14.11,44.09"
2024-05-28_16-40-30.296713,"12.34,46.65"
2024-05-28_16-40-30.329455,"12.94,45.30"
2024-05-28_16-40-30.362190,"11.17,47.84"
2024-05-28_16-40-30.390859,"7.60,40.21"
2024-05-28_16-40-30.423654,"78.60,50.77"
2024-05-28_16-40-30.456476,"14.17,34.51"
2024-05-28_16-40-30.489289,"13.17,42.57"
2024-05-28_16-40-30.521984,"13.20,39.22"
2024-05-28_16-40-30.555024,"12.35,39.06"
2024-05-28_16-40-30.587453,"11.91,42.62"
2024-05-28_16-40-30.620188,"15.15,40.37"
2024-05-28_16-40-30.648944,"11.00,38.51"
2024-05-28_16-40-30.681698,"12.70,39.79"
2024-05-28_16-40-30.714538,"10.03,41.12"
2024-05-28_16-40-30.747278,"10.51,42.62"
2024-05-28_16-40-30.780041,"11.11,40.35"
2024-05-28_16-40-30.812664,"8.81,39.90"
2024-05-28_16-40-30.845559,"52.63,38.22"
2024-05-28_16-40-30.874226,"12.17,36.33"
2024-05-28_16-40-30.907172,"14.55,36.62"
2024-05-28_16-40-30.939797,"12.72,37.73"
2024-05-28_16-40-30.972631,"12.46,38.69"
2024-05-28_16-40-31.005413,"63.67,35.15"
2024-05-28_16-40-31.038076,"55.61,54.15"
2024-05-28_16-40-31.070715,"49.89,51.56"
2024-05-28_16-40-31.099538,"26.64,47.15"
2024-05-28_16-40-31.132342,"53.05,49.44"
2024-05-28_16-40-31.165111,"67.66,53.71"
2024-05-28_16-40-31.197807,"68.00,52.17"
2024-05-28_16-40-31.230603,"39.86,54.52"
2024-05-28_16-40-31.263317,"70.44,46.59"
2024-05-28_16-40-31.296029,"58.65,35.04"
2024-05-28_16-40-31.324794,"41.61,33.62"
2024-05-28_16-40-31.357634,"54.87,31.89"
2024-05-28_16-40-31.390558,"40.32,30.82"
2024-05-28_16-40-31.423109,"40.86,32.10"
2024-05-28_16-40-31.456095,"28.10,31.51"
2024-05-28_16-40-31.488573,"20.30,31.03"
2024-05-28_16-40-31.521440,"13.60,34.24"
2024-05-28_16-40-31.550108,"9.22,30.02"
2024-05-28_16-40-31.582901,"5.50,30.63"
2024-05-28_16-40-31.615613,"7.25,28.73"
2024-05-28_16-40-31.648404,"4.50,30.04"
2024-05-28_16-40-31.681152,"4.50,32.50"
2024-05-28_16-40-31.713851,"10.75,27.77"
2024-05-28_16-40-31.746570,"14.23,28.13"
2024-05-28_16-40-31.775395,"21.43,28.47"
2024-05-28_16-40-31.808364,"13.28,31.76"
2024-05-28_16-40-31.840866,"13.79,26.99"
2024-05-28_16-40-31.873699,"11.34,23.58"
2024-05-28_16-40-31.906420,"13.60,28.02"
2024-05-28_16-40-31.939168,"15.52,26.17"
2024-05-28_16-40-31.971841,"18.78,29.71"
2024-05-28_16-40-32.000674,"13.49,23.56"
2024-05-28_16-40-32.034148,"14.23,25.17"
2024-05-28_16-40-32.066157,"16.06,25.33"
2024-05-28_16-40-32.099179,"17.89,28.97"
2024-05-28_16-40-32.131707,"17.41,24.84"
2024-05-28_16-40-32.164440,"25.41,27.19"
2024-05-28_16-40-32.197142,"47.85,31.98"
2024-05-28_16-40-32.225911,"17.47,42.11"
2024-05-28_16-40-32.268320,"71.73,36.50"
2024-05-28_16-40-32.293088,"72.80,33.73"
2024-05-28_16-40-32.324225,"44.47,26.97"
2024-05-28_16-40-32.356983,"32.36,25.79"
2024-05-28_16-40-32.389787,"21.65,22.37"
2024-05-28_16-40-32.422366,"25.23,28.72"
2024-05-28_16-40-32.451220,"21.82,25.08"
2024-05-28_16-40-32.483911,"22.46,25.94"
2024-05-28_16-40-32.516743,"16.27,24.47"
2024-05-28_16-40-32.549476,"17.40,27.72"
2024-05-28_16-40-32.582280,"14.66,26.16"
2024-05-28_16-40-32.615033,"10.70,24.84"
2024-05-28_16-40-32.647717,"12.85,27.75"
2024-05-28_16-40-32.676451,"14.38,25.97"
2024-05-28_16-40-32.709255,"11.66,28.13"
2024-05-28_16-40-32.742018,"8.99,23.66"
2024-05-28_16-40-32.774783,"9.71,25.34"
2024-05-28_16-40-32.807570,"11.06,24.65"
2024-05-28_16-40-32.840262,"16.03,29.96"
2024-05-28_16-40-32.872991,"14.26,25.73"
2024-05-28_16-40-32.901901,"15.99,26.33"
2024-05-28_16-40-32.934611,"12.20,23.92"
2024-05-28_16-40-32.967307,"14.45,27.18"
2024-05-28_16-40-33.000078,"15.71,30.28"
2024-05-28_16-40-33.032908,"12.86,25.79"
2024-05-28_16-40-33.065602,"13.28,25.28"
2024-05-28_16-40-33.098302,"12.46,23.68"
2024-05-28_16-40-33.127048,"12.78,23.15"
2024-05-28_16-40-33.159839,"13.63,26.15"
2024-05-28_16-40-33.192564,"11.59,24.64"
2024-05-28_16-40-33.225353,"14.43,24.18"
2024-05-28_16-40-33.258148,"9.18,23.35"
2024-05-28_16-40-33.290846,"13.71,26.17"
2024-05-28_16-40-33.323528,"12.22,24.22"
2024-05-28_16-40-33.352312,"14.08,24.19"
2024-05-28_16-40-33.385045,"15.78,25.51"
2024-05-28_16-40-33.417878,"14.58,23.46"
2024-05-28_16-40-33.450661,"17.89,25.70"
2024-05-28_16-40-33.484930,"16.59,22.20"
2024-05-28_16-40-33.516198,"15.44,22.70"
2024-05-28_16-40-33.548867,"15.94,22.08"
2024-05-28_16-40-33.577601,"19.10,26.30"
2024-05-28_16-40-33.610400,"16.71,23.04"
2024-05-28_16-40-33.643109,"18.59,24.31"
2024-05-28_16-40-33.675906,"16.22,21.61"
2024-05-28_16-40-33.708724,"17.12,24.68"
2024-05-28_16-40-33.741440,"18.30,26.72"
2024-05-28_16-40-33.774104,"15.18,23.77"
2024-05-28_16-40-33.802915,"15.79,22.51"
2024-05-28_16-40-33.835832,"15.51,21.53"
2024-05-28_16-40-33.868509,"16.43,22.02"
2024-05-28_16-40-33.901197,"17.88,24.33"
2024-05-28_16-40-33.934192,"15.34,22.72"
2024-05-28_16-40-33.966763,"17.80,23.69"
2024-05-28_16-40-33.999553,"16.06,20.59"
2024-05-28_16-40-34.028173,"18.24,25.30"
2024-05-28_16-40-34.060993,"16.80,24.11"
2024-05-28_16-40-34.093703,"15.34,22.93"
2024-05-28_16-40-34.126505,"17.54,23.94"
2024-05-28_16-40-34.159280,"15.92,23.28"
2024-05-28_16-40-34.192033,"18.29,24.31"
2024-05-28_16-40-34.224677,"16.43,21.74"
2024-05-28_16-40-34.253482,"15.18,22.14"
2024-05-28_16-40-34.286213,"16.94,21.82"
2024-05-28_16-40-34.319007,"18.53,26.11"
2024-05-28_16-40-34.351751,"16.40,20.29"
2024-05-28_16-40-34.385089,"17.91,22.29"
2024-05-28_16-40-34.417342,"15.61,21.61"
2024-05-28_16-40-34.450005,"17.91,24.26"
2024-05-28_16-40-34.478754,"19.18,26.08"
2024-05-28_16-40-34.511574,"15.66,23.17"
2024-05-28_16-40-34.544282,"16.63,21.84"
2024-05-28_16-40-34.589169,"16.08,21.32"
2024-05-28_16-40-34.609841,"16.50,21.46"
2024-05-28_16-40-34.642587,"18.90,23.77"
2024-05-28_16-40-34.675395,"17.03,21.34"
2024-05-28_16-40-34.704068,"17.55,22.73"
2024-05-28_16-40-34.736805,"16.93,19.78"
2024-05-28_16-40-34.769554,"19.14,25.89"
2024-05-28_16-40-34.802364,"17.97,24.32"
2024-05-28_16-40-34.835036,"16.14,22.91"
2024-05-28_16-40-34.867863,"17.58,22.68"
2024-05-28_16-40-34.900543,"17.51,23.03"
2024-05-28_16-40-34.934328,"19.03,22.86"
2024-05-28_16-40-34.962108,"17.18,21.12"
2024-05-28_16-40-34.994838,"16.69,21.39"
2024-05-28_16-40-35.027590,"18.49,21.47"
2024-05-28_16-40-35.060407,"20.37,24.73"
2024-05-28_16-40-35.093108,"17.78,19.65"
2024-05-28_16-40-35.125888,"18.52,23.59"
2024-05-28_16-40-35.158622,"16.37,21.99"
2024-05-28_16-40-35.187365,"19.03,24.50"
2024-05-28_16-40-35.220281,"20.30,25.42"
2024-05-28_16-40-35.252890,"17.39,22.35"
2024-05-28_16-40-35.285639,"18.57,21.63"
2024-05-28_16-40-35.318470,"17.07,21.64"
2024-05-28_16-40-35.351151,"18.21,20.73"
2024-05-28_16-40-35.384293,"20.50,25.51"
2024-05-28_16-40-35.412677,"17.11,22.15"
2024-05-28_16-40-35.445413,"18.69,23.66"
2024-05-28_16-40-35.478187,"16.76,22.48"
2024-05-28_16-40-35.510938,"20.19,27.86"
2024-05-28_16-40-35.543677,"18.55,24.08"
2024-05-28_16-40-35.576431,"16.99,21.69"
2024-05-28_16-40-35.609112,"17.99,21.49"
2024-05-28_16-40-35.637899,"18.29,22.56"
2024-05-28_16-40-35.670836,"20.14,23.27"
2024-05-28_16-40-35.703486,"19.41,19.66"
2024-05-28_16-40-35.736194,"18.26,16.62"
2024-05-28_16-40-35.768997,"18.78,29.05"
2024-05-28_16-40-35.801752,"26.58,68.16"
2024-05-28_16-40-35.834353,"22.81,43.29"
2024-05-28_16-40-35.863461,"29.63,68.39"
2024-05-28_16-40-35.895975,"29.44,67.79"
2024-05-28_16-40-35.928738,"32.89,72.37"
2024-05-28_16-40-35.961529,"34.43,68.16"
2024-05-28_16-40-35.994268,"27.74,60.45"
2024-05-28_16-40-36.026979,"28.79,81.03"
2024-05-28_16-40-36.059729,"29.60,48.12"
2024-05-28_16-40-36.089125,"23.07,55.81"
2024-05-28_16-40-36.121283,"22.39,47.19"
2024-05-28_16-40-36.154252,"21.13,12.17"
2024-05-28_16-40-36.186902,"31.45,56.46"
2024-05-28_16-40-36.219606,"34.28,72.15"
2024-05-28_16-40-36.252271,"42.22,57.16"
2024-05-28_16-40-36.285032,"43.18,63.96"
2024-05-28_16-40-36.313777,"42.22,82.93"
2024-05-28_16-40-36.347433,"48.81,75.10"
2024-05-28_16-40-36.383912,"46.12,8.95"
2024-05-28_16-40-36.412107,"42.07,5.25"
2024-05-28_16-40-36.444818,"46.93,9.29"
2024-05-28_16-40-36.477724,"46.48,8.55"
2024-05-28_16-40-36.510262,"50.40,9.42"
2024-05-28_16-40-36.539120,"51.98,91.65"
2024-05-28_16-40-36.571810,"38.00,67.69"
2024-05-28_16-40-36.604632,"42.54,55.11"
2024-05-28_16-40-36.637349,"42.37,19.88"
2024-05-28_16-40-36.670130,"37.50,55.34"
2024-05-28_16-40-36.702871,"43.62,70.70"
2024-05-28_16-40-36.735780,"26.37,81.35"
2024-05-28_16-40-36.764384,"19.99,62.91"
2024-05-28_16-40-36.797112,"28.43,78.53"
2024-05-28_16-40-36.829885,"35.62,54.93"
2024-05-28_16-40-36.862722,"38.92,63.72"
2024-05-28_16-40-36.895926,"33.72,52.11"
2024-05-28_16-40-36.928076,"34.64,57.26"
2024-05-28_16-40-36.960796,"32.03,41.49"
2024-05-28_16-40-36.989661,"33.11,22.20"
2024-05-28_16-40-37.022386,"25.30,0.00"
2024-05-28_16-40-37.060122,"24.56,0.00"
2024-05-28_16-40-37.090310,"22.51,0.00"
2024-05-28_16-40-37.120779,"26.84,0.00"
2024-05-28_16-40-37.153384,"23.15,0.00"
2024-05-28_16-40-37.186289,"25.04,0.00"
2024-05-28_16-40-37.214919,"24.39,0.00"
2024-05-28_16-40-37.247715,"27.36,0.00"
2024-05-28_16-40-37.280456,"30.94,0.00"
2024-05-28_16-40-37.313231,"25.96,0.00"
2024-05-28_16-40-37.346005,"26.93,0.00"
2024-05-28_16-40-37.378690,"24.98,0.00"
2024-05-28_16-40-37.411486,"25.57,0.00"
2024-05-28_16-40-37.440151,"27.42,0.00"
2024-05-28_16-40-37.473034,"24.11,0.00"
2024-05-28_16-40-37.505969,"24.23,0.00"
2024-05-28_16-40-37.538745,"23.54,0.00"
2024-05-28_16-40-37.571282,"28.40,0.00"
2024-05-28_16-40-37.604038,"27.44,0.00"
2024-05-28_16-40-37.636911,"24.92,0.00"
2024-05-28_16-40-37.665467,"27.11,0.00"
2024-05-28_16-40-37.701048,"25.62,0.00"
2024-05-28_16-40-37.731010,"27.90,0.00"
2024-05-28_16-40-37.763820,"24.17,0.00"
2024-05-28_16-40-37.796665,"24.05,0.00"
2024-05-28_16-40-37.829305,"24.21,0.00"
2024-05-28_16-40-37.861998,"27.87,0.00"
2024-05-28_16-40-37.890811,"24.07,0.00"
2024-05-28_16-40-37.923543,"25.82,0.00"
2024-05-28_16-40-37.956483,"24.44,0.00"
2024-05-28_16-40-37.989069,"27.70,4.50"
2024-05-28_16-40-38.021845,"28.81,0.00"
2024-05-28_16-40-38.054604,"26.62,15.22"
2024-05-28_16-40-38.087583,"24.89,17.12"
2024-05-28_16-40-38.119980,"25.99,6.00"
2024-05-28_16-40-38.148820,"25.34,9.28"
2024-05-28_16-40-38.181588,"28.92,10.02"
2024-05-28_16-40-38.214381,"23.63,8.36"
2024-05-28_16-40-38.247136,"26.15,12.99"
2024-05-28_16-40-38.279871,"25.47,6.72"
2024-05-28_16-40-38.312563,"29.57,8.81"
2024-05-28_16-40-38.345327,"27.41,10.07"
2024-05-28_16-40-38.374098,"25.75,10.97"
2024-05-28_16-40-38.406912,"26.49,9.77"
2024-05-28_16-40-38.439668,"26.21,6.90"
2024-05-28_16-40-38.472409,"27.46,7.25"
2024-05-28_16-40-38.505306,"24.61,6.36"
2024-05-28_16-40-38.537844,"25.75,9.66"
2024-05-28_16-40-38.570594,"25.31,7.50"
2024-05-28_16-40-38.599393,"29.72,8.00"
2024-05-28_16-40-38.632131,"25.08,5.25"
2024-05-28_16-40-38.664929,"28.42,9.14"
2024-05-28_16-40-38.697634,"25.97,5.50"
2024-05-28_16-40-38.730433,"28.39,4.75"
2024-05-28_16-40-38.763131,"31.81,4.75"
2024-05-28_16-40-38.795876,"28.40,4.50"
2024-05-28_16-40-38.824638,"29.25,4.50"
2024-05-28_16-40-38.857605,"39.43,4.75"
2024-05-28_16-40-38.890154,"59.61,8.23"
2024-05-28_16-40-38.923436,"54.12,7.43"
2024-05-28_16-40-38.955814,"41.59,8.66"
2024-05-28_16-40-38.988719,"44.15,15.16"
2024-05-28_16-40-39.021229,"41.22,7.62"
2024-05-28_16-40-39.049941,"47.32,14.27"
2024-05-28_16-40-39.082742,"39.11,19.68"
2024-05-28_16-40-39.115539,"38.63,15.88"
2024-05-28_16-40-39.148272,"37.21,24.11"
2024-05-28_16-40-39.192805,"36.50,34.35"
2024-05-28_16-40-39.214217,"43.09,31.24"
2024-05-28_16-40-39.246442,"41.87,29.80"
2024-05-28_16-40-39.275233,"39.77,40.17"
2024-05-28_16-40-39.307995,"39.12,46.84"
2024-05-28_16-40-39.340731,"36.10,47.55"
2024-05-28_16-40-39.373601,"26.36,47.57"
2024-05-28_16-40-39.406401,"34.87,31.67"
2024-05-28_16-40-39.439189,"30.33,41.15"
2024-05-28_16-40-39.471830,"28.50,40.76"
2024-05-28_16-40-39.500533,"31.46,49.31"
2024-05-28_16-40-39.533296,"28.80,30.64"
2024-05-28_16-40-39.566102,"28.94,26.28"
2024-05-28_16-40-39.598906,"27.14,50.31"
2024-05-28_16-40-39.631603,"34.71,43.25"
2024-05-28_16-40-39.664330,"28.62,26.81"
2024-05-28_16-40-39.697065,"31.88,34.00"
2024-05-28_16-40-39.725801,"29.35,40.22"
2024-05-28_16-40-39.758574,"26.50,31.92"
2024-05-28_16-40-39.792451,"32.83,31.72"
2024-05-28_16-40-39.824116,"29.73,30.80"
2024-05-28_16-40-39.857089,"28.00,20.78"
2024-05-28_16-40-39.889613,"28.59,28.17"
2024-05-28_16-40-39.922479,"32.63,19.50"
2024-05-28_16-40-39.951108,"30.11,30.97"
2024-05-28_16-40-39.984274,"30.56,21.70"
2024-05-28_16-40-40.016658,"29.87,23.67"
2024-05-28_16-40-40.049428,"28.92,23.40"
2024-05-28_16-40-40.082152,"35.24,20.80"
2024-05-28_16-40-40.114942,"29.05,13.48"
2024-05-28_16-40-40.147631,"29.72,15.28"
2024-05-28_16-40-40.180320,"29.36,12.51"
2024-05-28_16-40-40.209157,"30.08,11.07"
2024-05-28_16-40-40.241896,"33.90,12.54"
2024-05-28_16-40-40.274711,"29.96,12.58"
2024-05-28_16-40-40.307503,"31.41,10.76"
2024-05-28_16-40-40.340224,"30.43,7.00"
2024-05-28_16-40-40.372910,"33.11,11.54"
2024-05-28_16-40-40.405638,"32.28,11.13"
2024-05-28_16-40-40.435086,"29.63,9.40"
2024-05-28_16-40-40.467187,"32.09,12.03"
2024-05-28_16-40-40.499934,"30.13,9.53"
2024-05-28_16-40-40.532735,"32.49,10.58"
2024-05-28_16-40-40.565525,"27.77,8.58"
2024-05-28_16-40-40.598198,"27.56,8.23"
2024-05-28_16-40-40.626925,"26.65,4.50"
2024-05-28_16-40-40.659744,"31.43,8.25"
2024-05-28_16-40-40.692424,"26.55,5.75"
2024-05-28_16-40-40.725262,"28.66,8.68"
2024-05-28_16-40-40.758036,"26.57,7.85"
2024-05-28_16-40-40.790747,"28.70,11.49"
2024-05-28_16-40-40.823477,"32.14,12.99"
2024-05-28_16-40-40.856142,"26.81,11.76"
2024-05-28_16-40-40.885042,"26.75,7.46"
2024-05-28_16-40-40.917789,"25.87,8.84"
2024-05-28_16-40-40.950542,"25.75,5.25"
2024-05-28_16-40-40.983265,"28.15,9.38"
2024-05-28_16-40-41.016053,"24.31,4.75"
2024-05-28_16-40-41.048767,"25.87,8.85"
2024-05-28_16-40-41.081455,"24.75,6.25"
2024-05-28_16-40-41.110256,"30.14,12.51"
2024-05-28_16-40-41.143045,"27.91,12.88"
2024-05-28_16-40-41.175804,"25.09,11.32"
2024-05-28_16-40-41.208640,"27.23,12.91"
2024-05-28_16-40-41.241432,"26.43,10.39"
2024-05-28_16-40-41.274031,"29.33,11.08"
2024-05-28_16-40-41.307545,"25.42,7.11"
2024-05-28_16-40-41.335522,"24.62,8.09"
2024-05-28_16-40-41.368355,"25.29,8.96"
2024-05-28_16-40-41.401131,"28.83,8.87"
2024-05-28_16-40-41.434045,"24.36,6.25"
2024-05-28_16-40-41.466695,"26.96,11.18"
2024-05-28_16-40-41.499360,"24.91,10.75"
2024-05-28_16-40-41.532016,"27.96,13.67"
2024-05-28_16-40-41.560887,"31.26,12.78"
2024-05-28_16-40-41.593746,"25.67,12.11"
2024-05-28_16-40-41.626416,"26.15,8.98"
2024-05-28_16-40-41.659157,"26.08,9.78"
2024-05-28_16-40-41.691909,"26.49,9.76"
2024-05-28_16-40-41.724609,"28.73,10.33"
2024-05-28_16-40-41.757324,"24.55,6.25"
2024-05-28_16-40-41.786255,"27.02,9.37"
2024-05-28_16-40-41.818892,"25.79,9.46"
2024-05-28_16-40-41.851694,"30.95,14.46"
2024-05-28_16-40-41.884802,"28.50,13.66"
2024-05-28_16-40-41.917251,"26.46,11.52"
2024-05-28_16-40-41.949930,"27.29,11.87"
2024-05-28_16-40-41.982593,"26.88,9.42"
2024-05-28_16-40-42.011472,"28.43,10.56"
2024-05-28_16-40-42.044177,"25.62,9.51"
2024-05-28_16-40-42.076971,"25.02,9.38"
2024-05-28_16-40-42.109730,"25.72,8.99"
2024-05-28_16-40-42.142473,"29.76,9.90"
2024-05-28_16-40-42.175294,"25.00,8.25"
2024-05-28_16-40-42.207965,"26.56,13.01"
2024-05-28_16-40-42.237045,"24.10,11.75"
2024-05-28_16-40-42.269448,"26.92,13.03"
2024-05-28_16-40-42.302266,"28.60,11.21"
2024-05-28_16-40-42.335027,"24.22,10.83"
2024-05-28_16-40-42.367823,"23.93,7.11"
2024-05-28_16-40-42.400465,"24.08,9.65"
2024-05-28_16-40-42.433221,"25.59,8.84"
2024-05-28_16-40-42.462030,"27.43,10.13"
2024-05-28_16-40-42.494779,"24.49,6.50"
2024-05-28_16-40-42.527523,"27.60,9.91"
2024-05-28_16-40-42.560329,"26.40,11.04"
2024-05-28_16-40-42.593046,"32.21,15.20"
2024-05-28_16-40-42.625768,"29.68,13.38"
2024-05-28_16-40-42.658548,"27.06,11.75"
2024-05-28_16-40-42.687214,"27.70,9.40"
2024-05-28_16-40-42.720108,"29.01,10.44"
2024-05-28_16-40-42.752801,"28.81,9.11"
2024-05-28_16-40-42.785559,"27.05,10.04"
2024-05-28_16-40-42.818427,"26.26,7.70"
2024-05-28_16-40-42.851077,"27.44,9.57"
2024-05-28_16-40-42.883875,"31.06,11.04"
2024-05-28_16-40-42.912589,"25.58,12.16"
2024-05-28_16-40-42.945333,"27.57,14.26"
2024-05-28_16-40-42.978105,"25.24,11.94"
2024-05-28_16-40-43.010903,"27.64,12.67"
2024-05-28_16-40-43.043628,"31.57,11.44"
2024-05-28_16-40-43.076426,"26.90,11.80"
2024-05-28_16-40-43.109132,"26.43,9.65"
2024-05-28_16-40-43.137858,"25.20,9.77"
2024-05-28_16-40-43.170641,"27.16,10.03"
2024-05-28_16-40-43.203421,"27.62,9.06"
2024-05-28_16-40-43.236120,"25.34,8.25"
2024-05-28_16-40-43.268947,"28.06,13.47"
2024-05-28_16-40-43.301691,"25.95,11.98"
2024-05-28_16-40-43.334362,"30.99,14.83"
2024-05-28_16-40-43.363225,"27.35,12.01"
2024-05-28_16-40-43.395901,"27.08,9.70"
2024-05-28_16-40-43.428657,"28.06,10.15"
2024-05-28_16-40-43.461474,"32.90,10.63"
2024-05-28_16-40-43.494196,"33.15,7.60"
2024-05-28_16-40-43.527016,"41.52,11.77"
2024-05-28_16-40-43.559782,"54.17,13.35"
2024-05-28_16-40-43.588467,"59.41,10.11"
2024-05-28_16-40-43.621215,"72.84,20.19"
2024-05-28_16-40-43.653992,"64.38,21.09"
2024-05-28_16-40-43.686702,"95.90,22.24"
2024-05-28_16-40-43.719540,"81.82,25.30"
2024-05-28_16-40-43.752315,"81.01,55.23"
2024-05-28_16-40-43.800055,"87.28,78.58"
2024-05-28_16-40-43.813775,"76.40,92.20"
2024-05-28_16-40-43.846490,"26.94,86.55"
2024-05-28_16-40-43.879250,"48.77,76.60"
2024-05-28_16-40-43.912091,"55.17,67.28"
2024-05-28_16-40-43.944786,"73.14,51.27"
2024-05-28_16-40-43.977534,"77.37,37.05"
2024-05-28_16-40-44.010349,"78.59,33.15"
2024-05-28_16-40-44.039091,"83.06,26.57"
2024-05-28_16-40-44.071803,"60.71,31.52"
2024-05-28_16-40-44.104552,"49.36,26.90"
2024-05-28_16-40-44.137292,"45.38,29.07"
2024-05-28_16-40-44.170116,"38.18,25.91"
2024-05-28_16-40-44.202864,"44.13,30.76"
2024-05-28_16-40-44.235506,"54.32,27.29"
2024-05-28_16-40-44.264307,"42.99,29.12"
2024-05-28_16-40-44.297062,"37.17,22.89"
2024-05-28_16-40-44.329827,"33.41,24.75"
2024-05-28_16-40-44.362606,"24.26,26.48"
2024-05-28_16-40-44.395367,"18.38,23.49"
2024-05-28_16-40-44.428117,"22.17,23.23"
2024-05-28_16-40-44.460774,"23.16,21.00"
2024-05-28_16-40-44.489721,"27.70,21.77"
2024-05-28_16-40-44.522351,"32.94,24.31"
2024-05-28_16-40-44.555131,"30.09,25.89"
2024-05-28_16-40-44.587865,"32.03,23.40"
2024-05-28_16-40-44.620677,"31.97,22.49"
2024-05-28_16-40-44.653453,"35.12,25.85"
2024-05-28_16-40-44.686128,"36.14,25.87"
2024-05-28_16-40-44.714897,"33.86,22.82"
2024-05-28_16-40-44.747661,"39.25,26.44"
2024-05-28_16-40-44.780403,"39.13,23.03"
2024-05-28_16-40-44.813201,"56.17,27.98"
2024-05-28_16-40-44.845917,"57.52,23.72"
2024-05-28_16-40-44.878693,"61.20,22.17"
2024-05-28_16-40-44.911448,"68.44,20.75"
2024-05-28_16-40-44.940221,"69.93,22.72"
2024-05-28_16-40-44.972914,"79.32,24.16"
2024-05-28_16-40-45.005861,"61.76,20.00"
2024-05-28_16-40-45.039545,"47.12,17.90"
2024-05-28_16-40-45.071395,"49.97,26.84"
2024-05-28_16-40-45.103953,"40.95,26.55"
2024-05-28_16-40-45.136657,"34.70,24.30"
2024-05-28_16-40-45.165438,"32.70,18.68"
2024-05-28_16-40-45.198203,"37.06,29.92"
2024-05-28_16-40-45.230998,"32.87,24.54"
2024-05-28_16-40-45.263749,"34.30,26.74"
2024-05-28_16-40-45.296500,"39.09,29.04"
2024-05-28_16-40-45.329304,"37.41,24.33"
2024-05-28_16-40-45.361985,"40.07,30.94"
2024-05-28_16-40-45.390695,"47.35,29.41"
2024-05-28_16-40-45.423597,"40.74,23.31"
2024-05-28_16-40-45.456306,"38.48,28.32"
2024-05-28_16-40-45.489122,"41.73,34.18"
2024-05-28_16-40-45.521796,"36.30,25.20"
2024-05-28_16-40-45.554584,"41.91,31.02"
2024-05-28_16-40-45.587257,"34.09,28.57"
2024-05-28_16-40-45.616083,"33.15,31.89"
2024-05-28_16-40-45.648795,"35.83,31.61"
2024-05-28_16-40-45.681554,"39.41,36.46"
2024-05-28_16-40-45.714338,"36.45,36.51"
2024-05-28_16-40-45.747093,"35.61,21.86"
2024-05-28_16-40-45.779849,"35.23,31.57"
2024-05-28_16-40-45.812546,"41.18,34.63"
2024-05-28_16-40-45.845252,"42.41,36.25"
2024-05-28_16-40-45.874124,"35.45,31.68"
2024-05-28_16-40-45.906829,"35.78,40.71"
2024-05-28_16-40-45.939625,"34.51,35.38"
2024-05-28_16-40-45.977134,"32.78,28.90"
2024-05-28_16-40-46.005238,"39.60,45.80"
2024-05-28_16-40-46.038041,"32.53,43.25"
2024-05-28_16-40-46.070572,"37.31,44.06"
2024-05-28_16-40-46.099380,"37.27,33.35"
2024-05-28_16-40-46.132097,"40.60,38.86"
2024-05-28_16-40-46.164912,"38.19,33.29"
2024-05-28_16-40-46.197635,"33.53,29.11"
2024-05-28_16-40-46.230410,"34.60,28.57"
2024-05-28_16-40-46.263131,"36.81,27.97"
2024-05-28_16-40-46.295810,"43.10,29.78"
2024-05-28_16-40-46.324638,"44.47,25.84"
2024-05-28_16-40-46.357536,"48.61,28.37"
2024-05-28_16-40-46.390274,"49.56,23.79"
2024-05-28_16-40-46.422983,"52.75,26.40"
2024-05-28_16-40-46.455929,"42.85,22.57"
2024-05-28_16-40-46.488393,"45.83,21.97"
2024-05-28_16-40-46.521097,"42.52,17.50"
2024-05-28_16-40-46.549935,"47.70,19.98"
2024-05-28_16-40-46.582694,"51.56,17.34"
2024-05-28_16-40-46.615478,"44.18,16.46"
2024-05-28_16-40-46.648268,"42.38,13.09"
2024-05-28_16-40-46.681019,"42.62,12.77"
2024-05-28_16-40-46.713692,"41.61,10.39"
2024-05-28_16-40-46.746399,"45.02,11.45"
2024-05-28_16-40-46.775159,"36.97,8.09"
2024-05-28_16-40-46.808116,"34.03,10.16"
2024-05-28_16-40-46.840719,"31.75,8.60"
2024-05-28_16-40-46.873557,"38.05,13.07"
2024-05-28_16-40-46.906432,"34.92,10.14"
2024-05-28_16-40-46.938995,"32.57,4.75"
2024-05-28_16-40-46.971743,"32.56,5.00"
2024-05-28_16-40-47.000530,"32.86,0.00"
2024-05-28_16-40-47.033253,"33.74,0.00"
2024-05-28_16-40-47.066088,"29.52,0.00"
2024-05-28_16-40-47.098822,"26.74,0.00"
2024-05-28_16-40-47.131663,"24.36,0.00"
2024-05-28_16-40-47.164246,"28.34,0.00"
2024-05-28_16-40-47.196990,"22.96,8.31"
2024-05-28_16-40-47.225775,"24.56,18.64"
2024-05-28_16-40-47.258568,"21.49,17.49"
2024-05-28_16-40-47.291339,"23.65,18.79"
2024-05-28_16-40-47.324200,"22.45,18.07"
2024-05-28_16-40-47.356972,"19.47,18.27"
2024-05-28_16-40-47.389648,"19.79,15.43"
2024-05-28_16-40-47.422268,"18.65,15.79"
2024-05-28_16-40-47.451098,"19.67,18.17"
2024-05-28_16-40-47.483854,"22.38,19.59"
2024-05-28_16-40-47.516637,"18.79,15.95"
2024-05-28_16-40-47.549396,"20.59,19.97"
2024-05-28_16-40-47.582147,"16.31,19.63"
2024-05-28_16-40-47.614901,"19.96,26.90"
2024-05-28_16-40-47.647541,"17.19,33.32"
2024-05-28_16-40-47.676342,"18.06,55.19"
2024-05-28_16-40-47.709177,"16.87,78.67"
2024-05-28_16-40-47.741927,"19.52,63.45"
2024-05-28_16-40-47.774653,"20.12,63.81"
2024-05-28_16-40-47.807735,"28.40,43.99"
2024-05-28_16-40-47.840294,"34.36,59.96"
2024-05-28_16-40-47.872820,"41.74,78.40"
2024-05-28_16-40-47.901635,"43.60,47.85"
2024-05-28_16-40-47.934825,"36.05,73.33"
2024-05-28_16-40-47.967222,"26.13,40.85"
2024-05-28_16-40-47.999969,"21.84,35.55"
2024-05-28_16-40-48.032919,"24.94,37.49"
2024-05-28_16-40-48.065464,"24.32,28.10"
2024-05-28_16-40-48.098143,"19.92,19.85"
2024-05-28_16-40-48.126909,"19.97,29.64"
2024-05-28_16-40-48.159704,"21.89,32.02"
2024-05-28_16-40-48.192679,"22.63,23.83"
2024-05-28_16-40-48.225265,"21.42,12.44"
2024-05-28_16-40-48.258126,"19.69,14.99"
2024-05-28_16-40-48.294294,"23.84,37.88"
2024-05-28_16-40-48.323565,"18.20,57.29"
2024-05-28_16-40-48.352239,"18.18,67.02"
2024-05-28_16-40-48.385450,"15.46,70.12"
2024-05-28_16-40-48.417764,"15.05,66.44"
2024-05-28_16-40-48.450555,"12.43,66.99"
2024-05-28_16-40-48.483329,"15.80,62.04"
2024-05-28_16-40-48.516011,"14.08,74.15"
2024-05-28_16-40-48.548717,"17.16,65.52"
2024-05-28_16-40-48.577562,"16.21,61.30"
2024-05-28_16-40-48.610318,"17.68,48.10"
2024-05-28_16-40-48.643002,"18.42,54.01"
2024-05-28_16-40-48.675813,"16.79,49.40"
2024-05-28_16-40-48.708765,"17.74,53.26"
2024-05-28_16-40-48.743029,"12.88,56.67"
2024-05-28_16-40-48.774017,"15.37,59.61"
2024-05-28_16-40-48.802819,"17.43,70.30"
2024-05-28_16-40-48.835664,"15.52,70.75"
2024-05-28_16-40-48.868366,"18.02,65.97"
2024-05-28_16-40-48.901131,"18.53,67.87"
2024-05-28_16-40-48.933853,"17.93,55.98"
2024-05-28_16-40-48.966639,"15.71,59.57"
2024-05-28_16-40-48.999308,"13.69,57.67"
2024-05-28_16-40-49.028068,"20.22,85.73"
2024-05-28_16-40-49.060913,"19.46,55.22"
2024-05-28_16-40-49.093614,"38.85,75.89"
2024-05-28_16-40-49.126366,"37.39,19.56"
2024-05-28_16-40-49.159183,"49.75,34.65"
2024-05-28_16-40-49.191936,"40.42,81.40"
2024-05-28_16-40-49.224606,"23.14,75.68"
2024-05-28_16-40-49.253351,"19.19,47.91"
2024-05-28_16-40-49.286085,"19.19,51.50"
2024-05-28_16-40-49.318930,"22.84,56.74"
2024-05-28_16-40-49.351680,"23.03,61.61"
2024-05-28_16-40-49.385004,"23.05,72.84"
2024-05-28_16-40-49.417235,"44.36,72.32"
2024-05-28_16-40-49.449913,"47.22,71.47"
2024-05-28_16-40-49.478648,"44.47,57.32"
2024-05-28_16-40-49.511462,"44.21,51.17"
2024-05-28_16-40-49.544169,"41.20,56.14"
2024-05-28_16-40-49.576978,"34.25,54.89"
2024-05-28_16-40-49.609741,"35.71,51.28"
2024-05-28_16-40-49.642462,"30.64,51.04"
2024-05-28_16-40-49.675197,"30.30,46.11"
2024-05-28_16-40-49.703974,"39.22,40.94"
2024-05-28_16-40-49.736993,"79.30,70.37"
2024-05-28_16-40-49.769510,"65.06,64.74"
2024-05-28_16-40-49.802281,"81.99,66.69"
2024-05-28_16-40-49.835104,"75.74,50.91"
2024-05-28_16-40-49.867832,"80.84,59.48"
2024-05-28_16-40-49.900491,"44.69,61.23"
2024-05-28_16-40-49.929234,"8.16,67.25"
2024-05-28_16-40-49.962068,"51.33,59.15"
2024-05-28_16-40-49.994755,"4.50,57.75"
2024-05-28_16-40-50.027552,"0.00,54.00"
2024-05-28_16-40-50.060386,"37.53,61.11"
2024-05-28_16-40-50.093241,"79.94,57.93"
2024-05-28_16-40-50.125761,"68.87,59.01"
2024-05-28_16-40-50.154531,"54.21,60.03"
2024-05-28_16-40-50.187270,"47.72,65.44"
2024-05-28_16-40-50.220067,"7.07,73.31"
2024-05-28_16-40-50.252868,"9.61,75.84"
2024-05-28_16-40-50.285563,"11.86,86.82"
2024-05-28_16-40-50.318411,"69.09,53.82"
2024-05-28_16-40-50.351059,"71.68,31.23"
2024-05-28_16-40-50.383750,"95.22,26.10"
2024-05-28_16-40-50.412588,"92.91,23.52"
2024-05-28_16-40-50.445326,"82.53,6.36"
2024-05-28_16-40-50.478114,"88.04,12.43"
2024-05-28_16-40-50.510919,"69.09,12.46"
2024-05-28_16-40-50.554399,"51.43,87.84"
2024-05-28_16-40-50.576510,"37.84,78.75"
2024-05-28_16-40-50.609226,"32.89,49.49"
2024-05-28_16-40-50.637832,"39.38,65.38"
2024-05-28_16-40-50.670633,"53.43,65.67"
2024-05-28_16-40-50.703443,"41.00,67.47"
2024-05-28_16-40-50.736420,"40.75,66.47"
2024-05-28_16-40-50.769060,"48.72,71.64"
2024-05-28_16-40-50.801700,"42.40,58.46"
2024-05-28_16-40-50.834334,"71.41,60.10"
2024-05-28_16-40-50.863168,"56.48,55.43"
2024-05-28_16-40-50.895913,"43.27,68.99"
2024-05-28_16-40-50.928769,"42.32,66.28"
2024-05-28_16-40-50.961488,"39.80,74.37"
2024-05-28_16-40-50.994228,"39.72,67.18"
2024-05-28_16-40-51.026984,"40.64,66.57"
2024-05-28_16-40-51.059867,"40.35,66.78"
2024-05-28_16-40-51.088579,"41.56,66.06"
2024-05-28_16-40-51.121260,"90.12,80.80"
2024-05-28_16-40-51.153994,"80.30,81.60"
2024-05-28_16-40-51.186825,"55.95,71.62"
2024-05-28_16-40-51.219628,"50.16,67.55"
2024-05-28_16-40-51.252269,"39.08,74.46"
2024-05-28_16-40-51.285205,"40.13,67.12"
2024-05-28_16-40-51.313857,"40.60,66.61"
2024-05-28_16-40-51.346524,"40.77,66.66"
2024-05-28_16-40-51.379291,"42.89,66.08"
2024-05-28_16-40-51.412084,"39.74,74.51"
2024-05-28_16-40-51.444858,"38.28,67.84"
2024-05-28_16-40-51.477615,"79.21,35.66"
2024-05-28_16-40-51.510312,"83.53,60.17"
2024-05-28_16-40-51.538989,"54.33,65.48"
2024-05-28_16-40-51.571825,"41.47,66.53"
2024-05-28_16-40-51.604629,"39.93,66.34"
2024-05-28_16-40-51.637293,"40.88,66.84"
2024-05-28_16-40-51.670125,"43.33,66.07"
2024-05-28_16-40-51.702873,"38.79,74.48"
2024-05-28_16-40-51.735936,"59.98,62.63"
2024-05-28_16-40-51.764326,"37.75,68.17"
2024-05-28_16-40-51.797148,"56.13,66.54"
2024-05-28_16-40-51.829856,"58.54,77.89"
2024-05-28_16-40-51.862703,"75.13,79.45"
2024-05-28_16-40-51.895426,"56.11,65.55"
2024-05-28_16-40-51.928149,"39.89,66.15"
2024-05-28_16-40-51.960939,"42.46,66.40"
2024-05-28_16-40-51.989678,"39.23,74.44"
2024-05-28_16-40-52.022416,"40.09,67.22"
2024-05-28_16-40-52.055142,"40.70,66.53"
2024-05-28_16-40-52.087902,"38.70,67.69"
2024-05-28_16-40-52.120706,"74.81,68.19"
2024-05-28_16-40-52.153541,"97.57,88.26"
2024-05-28_16-40-52.186108,"45.19,60.51"
2024-05-28_16-40-52.214893,"36.21,67.31"
2024-05-28_16-40-52.247677,"42.77,66.08"
2024-05-28_16-40-52.280449,"39.64,74.48"
2024-05-28_16-40-52.313215,"40.44,67.05"
2024-05-28_16-40-52.346010,"40.49,66.56"
2024-05-28_16-40-52.378696,"40.88,66.81"
2024-05-28_16-40-52.411424,"42.94,66.07"
2024-05-28_16-40-52.440264,"58.09,63.20"
2024-05-28_16-40-52.472942,"75.59,29.14"
2024-05-28_16-40-52.505751,"76.31,78.00"
2024-05-28_16-40-52.538516,"50.50,69.27"
2024-05-28_16-40-52.571257,"39.34,74.40"
2024-05-28_16-40-52.604032,"40.49,67.21"
2024-05-28_16-40-52.636766,"40.70,66.62"
2024-05-28_16-40-52.665518,"40.35,66.68"
2024-05-28_16-40-52.698270,"43.17,66.10"
2024-05-28_16-40-52.731008,"39.75,74.48"
2024-05-28_16-40-52.763842,"40.02,67.22"
2024-05-28_16-40-52.796526,"40.66,66.48"
2024-05-28_16-40-52.829335,"38.51,67.54"
2024-05-28_16-40-52.862022,"68.28,76.34"
2024-05-28_16-40-52.890863,"69.81,77.91"
2024-05-28_16-40-52.923554,"66.40,53.69"
2024-05-28_16-40-52.968841,"45.95,82.05"
2024-05-28_16-40-52.989049,"76.31,68.86"
2024-05-28_16-40-53.021895,"41.99,64.16"
2024-05-28_16-40-53.054624,"49.75,54.33"
2024-05-28_16-40-53.087331,"83.97,22.83"
2024-05-28_16-40-53.116066,"84.58,27.93"
2024-05-28_16-40-53.148817,"84.17,30.14"
2024-05-28_16-40-53.181575,"84.43,26.51"
2024-05-28_16-40-53.214386,"62.59,78.14"
2024-05-28_16-40-53.247184,"99.15,73.37"
2024-05-28_16-40-53.279901,"64.02,65.48"
2024-05-28_16-40-53.312613,"71.16,94.89"
2024-05-28_16-40-53.345263,"57.27,95.62"
2024-05-28_16-40-53.374117,"58.14,58.87"
2024-05-28_16-40-53.406953,"64.67,86.17"
2024-05-28_16-40-53.439873,"79.07,69.27"
2024-05-28_16-40-53.472429,"84.37,50.56"
2024-05-28_16-40-53.505193,"73.86,67.56"
2024-05-28_16-40-53.538040,"67.97,72.40"
2024-05-28_16-40-53.570603,"78.89,67.86"
2024-05-28_16-40-53.599451,"64.34,68.03"
2024-05-28_16-40-53.632185,"21.43,52.47"
2024-05-28_16-40-53.664938,"20.74,46.56"
2024-05-28_16-40-53.697707,"20.38,41.12"
2024-05-28_16-40-53.730495,"16.45,60.27"
2024-05-28_16-40-53.763278,"41.79,72.08"
2024-05-28_16-40-53.795829,"74.52,29.72"
2024-05-28_16-40-53.824806,"73.70,54.96"
2024-05-28_16-40-53.857512,"61.81,55.91"
2024-05-28_16-40-53.890274,"75.76,67.80"
2024-05-28_16-40-53.923054,"29.20,80.74"
2024-05-28_16-40-53.955803,"7.85,36.11"
2024-05-28_16-40-53.988501,"27.10,53.65"
2024-05-28_16-40-54.021208,"37.18,74.26"
2024-05-28_16-40-54.050077,"29.16,69.78"
2024-05-28_16-40-54.082759,"23.77,74.52"
2024-05-28_16-40-54.115525,"24.68,45.98"
2024-05-28_16-40-54.148286,"36.47,47.86"
2024-05-28_16-40-54.181066,"52.92,43.93"
2024-05-28_16-40-54.213791,"27.66,38.48"
2024-05-28_16-40-54.246467,"64.02,32.35"
2024-05-28_16-40-54.275262,"75.20,25.15"
2024-05-28_16-40-54.308286,"72.13,32.02"
2024-05-28_16-40-54.340947,"73.38,28.46"
2024-05-28_16-40-54.373603,"52.56,33.64"
2024-05-28_16-40-54.406580,"52.80,28.84"
2024-05-28_16-40-54.439106,"14.77,28.37"
2024-05-28_16-40-54.471807,"47.95,38.26"
2024-05-28_16-40-54.500592,"67.38,44.58"
2024-05-28_16-40-54.533335,"41.24,37.76"
2024-05-28_16-40-54.566109,"58.81,43.65"
2024-05-28_16-40-54.598907,"61.30,35.10"
2024-05-28_16-40-54.631665,"12.81,40.13"
2024-05-28_16-40-54.664331,"13.69,35.48"
2024-05-28_16-40-54.697096,"11.13,35.98"
2024-05-28_16-40-54.725840,"12.76,36.84"
2024-05-28_16-40-54.758687,"12.25,36.12"
2024-05-28_16-40-54.791416,"9.82,39.42"
2024-05-28_16-40-54.824301,"11.01,36.69"
2024-05-28_16-40-54.857018,"8.67,37.41"
2024-05-28_16-40-54.889674,"44.35,34.58"
2024-05-28_16-40-54.922406,"73.11,43.08"
2024-05-28_16-40-54.951151,"13.95,41.43"
2024-05-28_16-40-54.983997,"12.77,43.80"
2024-05-28_16-40-55.016694,"12.33,46.02"
2024-05-28_16-40-55.049525,"11.46,45.00"
2024-05-28_16-40-55.082266,"11.69,48.61"
2024-05-28_16-40-55.114964,"13.69,36.49"
2024-05-28_16-40-55.147690,"44.71,42.77"
2024-05-28_16-40-55.176449,"52.56,38.39"
2024-05-28_16-40-55.209289,"21.24,28.52"
2024-05-28_16-40-55.242060,"13.71,35.33"
2024-05-28_16-40-55.274797,"11.43,31.60"
2024-05-28_16-40-55.307655,"14.69,29.71"
2024-05-28_16-40-55.340266,"85.55,41.47"
2024-05-28_16-40-55.372966,"77.02,58.13"
2024-05-28_16-40-55.402911,"43.82,91.62"
2024-05-28_16-40-55.434473,"78.85,64.97"
2024-05-28_16-40-55.467294,"49.57,71.06"
2024-05-28_16-40-55.500056,"67.25,67.71"
2024-05-28_16-40-55.532780,"52.78,76.34"
2024-05-28_16-40-55.565550,"44.96,77.89"
2024-05-28_16-40-55.598211,"73.33,63.64"
2024-05-28_16-40-55.627007,"69.72,51.79"
2024-05-28_16-40-55.659782,"15.92,31.44"
2024-05-28_16-40-55.692564,"29.96,52.02"
2024-05-28_16-40-55.725290,"33.93,60.60"
2024-05-28_16-40-55.758143,"31.13,65.38"
2024-05-28_16-40-55.791060,"46.59,68.13"
2024-05-28_16-40-55.823509,"73.66,96.22"
2024-05-28_16-40-55.852276,"62.63,66.42"
2024-05-28_16-40-55.885808,"60.44,68.62"
2024-05-28_16-40-55.917836,"78.06,79.76"
2024-05-28_16-40-55.950591,"60.58,77.59"
2024-05-28_16-40-55.983401,"66.75,60.94"
2024-05-28_16-40-56.016142,"67.68,67.79"
2024-05-28_16-40-56.048792,"89.24,69.54"
2024-05-28_16-40-56.077601,"77.42,70.99"
2024-05-28_16-40-56.110357,"55.31,88.10"
2024-05-28_16-40-56.143119,"53.54,73.40"
2024-05-28_16-40-56.175891,"36.46,20.40"
2024-05-28_16-40-56.208824,"38.61,18.92"
2024-05-28_16-40-56.241396,"35.21,12.83"
2024-05-28_16-40-56.274078,"38.64,7.85"
2024-05-28_16-40-56.302922,"39.63,10.70"
2024-05-28_16-40-56.335865,"38.15,14.28"
2024-05-28_16-40-56.368483,"41.08,20.85"
2024-05-28_16-40-56.401228,"75.59,21.50"
2024-05-28_16-40-56.433980,"72.52,32.14"
2024-05-28_16-40-56.466770,"59.10,33.57"
2024-05-28_16-40-56.499423,"85.23,33.18"
2024-05-28_16-40-56.528172,"64.55,32.13"
2024-05-28_16-40-56.561001,"47.55,22.58"
2024-05-28_16-40-56.593713,"46.35,20.50"
2024-05-28_16-40-56.626493,"38.07,13.14"
2024-05-28_16-40-56.659443,"37.75,8.53"
2024-05-28_16-40-56.691999,"39.68,6.90"
2024-05-28_16-40-56.724689,"41.50,4.75"
2024-05-28_16-40-56.753489,"39.87,4.75"
2024-05-28_16-40-56.786471,"43.43,18.01"
2024-05-28_16-40-56.819060,"47.38,35.24"
2024-05-28_16-40-56.851777,"58.46,36.52"
2024-05-28_16-40-56.884630,"64.61,35.69"
2024-05-28_16-40-56.917342,"59.01,48.97"
2024-05-28_16-40-56.950014,"63.90,55.29"
2024-05-28_16-40-56.978750,"62.25,55.30"
2024-05-28_16-40-57.011575,"76.75,60.46"
2024-05-28_16-40-57.044318,"79.46,47.24"
2024-05-28_16-40-57.077068,"62.26,21.13"
2024-05-28_16-40-57.109903,"52.70,10.02"
2024-05-28_16-40-57.142748,"52.35,0.00"
2024-05-28_16-40-57.176209,"58.27,6.73"
2024-05-28_16-40-57.208008,"60.42,9.11"
2024-05-28_16-40-57.236823,"56.33,9.28"
2024-05-28_16-40-57.269630,"57.98,7.78"
2024-05-28_16-40-57.302411,"49.03,23.22"
2024-05-28_16-40-57.335121,"68.12,39.35"
2024-05-28_16-40-57.367921,"79.87,37.45"
2024-05-28_16-40-57.400612,"66.39,45.66"
2024-05-28_16-40-57.433258,"67.61,49.83"
2024-05-28_16-40-57.462117,"58.42,55.11"
2024-05-28_16-40-57.494863,"52.14,29.25"
2024-05-28_16-40-57.529807,"47.08,85.15"
2024-05-28_16-40-57.560392,"43.88,58.12"
2024-05-28_16-40-57.593191,"20.89,30.49"
2024-05-28_16-40-57.625897,"62.85,28.67"
2024-05-28_16-40-57.658760,"80.60,52.32"
2024-05-28_16-40-57.687379,"61.72,56.60"
2024-05-28_16-40-57.720171,"45.79,48.47"
2024-05-28_16-40-57.752971,"13.68,31.36"
2024-05-28_16-40-57.786261,"15.14,30.82"
2024-05-28_16-40-57.818476,"17.82,71.33"
2024-05-28_16-40-57.851198,"45.95,64.37"
2024-05-28_16-40-57.883863,"83.93,24.84"
2024-05-28_16-40-57.912733,"33.46,69.08"
2024-05-28_16-40-57.945421,"58.60,56.25"
2024-05-28_16-40-57.978236,"68.26,70.73"
2024-05-28_16-40-58.011009,"33.27,83.98"
2024-05-28_16-40-58.043733,"28.51,86.53"
2024-05-28_16-40-58.076540,"28.51,84.24"
2024-05-28_16-40-58.109213,"70.82,22.86"
2024-05-28_16-40-58.137964,"50.56,105.33"
2024-05-28_16-40-58.170738,"76.96,64.47"
2024-05-28_16-40-58.203600,"60.99,85.88"
2024-05-28_16-40-58.236254,"90.06,69.02"
2024-05-28_16-40-58.269088,"100.01,47.74"
2024-05-28_16-40-58.301775,"82.29,18.23"
2024-05-28_16-40-58.335037,"87.38,0.00"
2024-05-28_16-40-58.363317,"67.49,26.73"
2024-05-28_16-40-58.396050,"91.37,13.47"
2024-05-28_16-40-58.428818,"78.93,22.02"
2024-05-28_16-40-58.461606,"34.14,81.00"
2024-05-28_16-40-58.494314,"74.13,32.15"
2024-05-28_16-40-58.527067,"84.63,25.46"
2024-05-28_16-40-58.559890,"84.39,26.72"
2024-05-28_16-40-58.588528,"60.32,27.36"
2024-05-28_16-40-58.621358,"104.50,67.47"
2024-05-28_16-40-58.654116,"44.24,57.84"
2024-05-28_16-40-58.686797,"61.43,75.32"
2024-05-28_16-40-58.719629,"55.69,39.40"
2024-05-28_16-40-58.752367,"94.78,25.47"
2024-05-28_16-40-58.785044,"86.71,24.81"
2024-05-28_16-40-58.813875,"84.37,26.72"
2024-05-28_16-40-58.846622,"84.31,26.72"
2024-05-28_16-40-58.879402,"84.44,29.59"
2024-05-28_16-40-58.912165,"95.34,26.72"
2024-05-28_16-40-58.944951,"83.58,50.26"
2024-05-28_16-40-58.977620,"29.02,75.39"
2024-05-28_16-40-59.010385,"29.59,76.06"
2024-05-28_16-40-59.039145,"52.67,56.76"
2024-05-28_16-40-59.071936,"39.51,71.22"
2024-05-28_16-40-59.104717,"31.43,66.07"
2024-05-28_16-40-59.137426,"50.64,59.40"
2024-05-28_16-40-59.170274,"72.36,31.22"
2024-05-28_16-40-59.202946,"54.39,38.33"
2024-05-28_16-40-59.235707,"56.51,57.56"
2024-05-28_16-40-59.264511,"45.60,59.37"
2024-05-28_16-40-59.297188,"27.63,63.27"
2024-05-28_16-40-59.329989,"64.85,35.07"
2024-05-28_16-40-59.362752,"66.76,64.15"
2024-05-28_16-40-59.395567,"71.55,65.54"
2024-05-28_16-40-59.428248,"47.34,52.90"
2024-05-28_16-40-59.460973,"85.01,25.44"
2024-05-28_16-40-59.489723,"48.91,90.20"
2024-05-28_16-40-59.522504,"11.96,94.55"
2024-05-28_16-40-59.555292,"10.91,90.63"
2024-05-28_16-40-59.588013,"48.26,81.29"
2024-05-28_16-40-59.620821,"42.57,66.73"
2024-05-28_16-40-59.653597,"37.57,73.48"
2024-05-28_16-40-59.686220,"69.90,71.27"
2024-05-28_16-40-59.715046,"64.61,63.42"
2024-05-28_16-40-59.747795,"47.66,68.61"
2024-05-28_16-40-59.780602,"51.42,67.30"
2024-05-28_16-40-59.813354,"38.43,77.80"
2024-05-28_16-40-59.846108,"53.71,56.79"
2024-05-28_16-40-59.894276,"7.42,69.87"
2024-05-28_16-40-59.912463,"63.62,49.00"
2024-05-28_16-40-59.940340,"39.59,74.42"
2024-05-28_16-40-59.973099,"51.71,60.26"
2024-05-28_16-41-00.005885,"39.79,64.72"
2024-05-28_16-41-00.038618,"39.77,85.57"
2024-05-28_16-41-00.071483,"38.74,71.67"
2024-05-28_16-41-00.104196,"78.55,56.99"
2024-05-28_16-41-00.136817,"77.36,87.84"
2024-05-28_16-41-00.165665,"61.76,65.61"
2024-05-28_16-41-00.198359,"42.43,76.05"
2024-05-28_16-41-00.231158,"21.24,84.38"
2024-05-28_16-41-00.263933,"69.37,24.84"
2024-05-28_16-41-00.296688,"84.58,26.72"
2024-05-28_16-41-00.329465,"84.50,26.10"
2024-05-28_16-41-00.362184,"69.02,26.84"
2024-05-28_16-41-00.390918,"70.19,80.95"
2024-05-28_16-41-00.423661,"52.06,65.26"
2024-05-28_16-41-00.456548,"70.22,27.29"
2024-05-28_16-41-00.489171,"66.12,58.08"
2024-05-28_16-41-00.522020,"65.24,84.49"
2024-05-28_16-41-00.554762,"68.15,54.43"
2024-05-28_16-41-00.587436,"50.25,38.09"
2024-05-28_16-41-00.620191,"74.24,35.57"
2024-05-28_16-41-00.648948,"71.68,20.02"
2024-05-28_16-41-00.681705,"60.56,23.81"
2024-05-28_16-41-00.714495,"55.27,39.28"
2024-05-28_16-41-00.747280,"40.96,44.66"
2024-05-28_16-41-00.780024,"39.11,51.04"
2024-05-28_16-41-00.812724,"42.28,49.99"
2024-05-28_16-41-00.845427,"45.18,47.45"
2024-05-28_16-41-00.874268,"43.99,34.04"
2024-05-28_16-41-00.907177,"54.83,29.99"
2024-05-28_16-41-00.939888,"59.55,21.06"
2024-05-28_16-41-00.972614,"69.48,22.53"
2024-05-28_16-41-01.005368,"61.23,26.00"
2024-05-28_16-41-01.038284,"79.41,29.20"
2024-05-28_16-41-01.070733,"76.20,26.55"
2024-05-28_16-41-01.099555,"75.63,24.39"
2024-05-28_16-41-01.132291,"85.97,22.70"
2024-05-28_16-41-01.165078,"69.41,27.55"
2024-05-28_16-41-01.197981,"41.60,40.37"
2024-05-28_16-41-01.230631,"16.33,39.25"
2024-05-28_16-41-01.263337,"52.28,33.31"
2024-05-28_16-41-01.296032,"10.73,38.93"
2024-05-28_16-41-01.324831,"7.07,43.18"
2024-05-28_16-41-01.357650,"56.38,44.70"
2024-05-28_16-41-01.390487,"43.06,71.18"
2024-05-28_16-41-01.423152,"10.75,64.75"
2024-05-28_16-41-01.455942,"24.27,76.47"
2024-05-28_16-41-01.488660,"69.39,23.56"
2024-05-28_16-41-01.521355,"51.77,75.26"
2024-05-28_16-41-01.550148,"10.26,77.35"
2024-05-28_16-41-01.582895,"11.02,69.74"
2024-05-28_16-41-01.615709,"10.88,70.83"
2024-05-28_16-41-01.648547,"45.78,72.55"
2024-05-28_16-41-01.681203,"79.81,76.46"
2024-05-28_16-41-01.713940,"54.12,87.67"
2024-05-28_16-41-01.746559,"67.42,59.49"
2024-05-28_16-41-01.775491,"75.27,70.55"
2024-05-28_16-41-01.808220,"79.81,61.36"
2024-05-28_16-41-01.840934,"32.15,71.35"
2024-05-28_16-41-01.873720,"63.63,100.35"
2024-05-28_16-41-01.906493,"44.66,84.02"
2024-05-28_16-41-01.939237,"72.02,35.61"
2024-05-28_16-41-01.971944,"16.96,50.51"
2024-05-28_16-41-02.000750,"69.62,37.87"
2024-05-28_16-41-02.033486,"14.14,44.51"
2024-05-28_16-41-02.066270,"72.27,40.79"
2024-05-28_16-41-02.099038,"74.23,41.39"
2024-05-28_16-41-02.131870,"81.37,35.82"
2024-05-28_16-41-02.164543,"78.22,34.38"
2024-05-28_16-41-02.197276,"76.51,36.14"
2024-05-28_16-41-02.225981,"67.88,34.39"
2024-05-28_16-41-02.258826,"25.65,28.88"
2024-05-28_16-41-02.291578,"76.24,28.68"
2024-05-28_16-41-02.324329,"82.52,17.95"
2024-05-28_16-41-02.362442,"38.39,27.82"
2024-05-28_16-41-02.402111,"14.22,24.99"
2024-05-28_16-41-02.422540,"13.07,23.14"
2024-05-28_16-41-02.451351,"13.89,25.55"
2024-05-28_16-41-02.484100,"12.98,25.16"
2024-05-28_16-41-02.516933,"12.97,29.62"
2024-05-28_16-41-02.549619,"76.69,24.79"
2024-05-28_16-41-02.582371,"45.09,23.33"
2024-05-28_16-41-02.615090,"57.49,33.67"
2024-05-28_16-41-02.647913,"81.79,32.44"
2024-05-28_16-41-02.676632,"61.19,29.18"
2024-05-28_16-41-02.709447,"46.24,24.15"
2024-05-28_16-41-02.742105,"58.48,19.76"
2024-05-28_16-41-02.774928,"12.51,26.82"
2024-05-28_16-41-02.807828,"13.39,28.18"
2024-05-28_16-41-02.840368,"14.10,24.71"
2024-05-28_16-41-02.873113,"12.27,25.86"
2024-05-28_16-41-02.901970,"11.95,31.09"
2024-05-28_16-41-02.934680,"47.21,33.11"
2024-05-28_16-41-02.967476,"54.17,29.40"
2024-05-28_16-41-03.000190,"77.23,57.21"
2024-05-28_16-41-03.032966,"86.50,77.37"
2024-05-28_16-41-03.065716,"85.89,74.54"
2024-05-28_16-41-03.098391,"74.21,88.30"
2024-05-28_16-41-03.127230,"66.22,78.52"
2024-05-28_16-41-03.159936,"58.47,68.06"
2024-05-28_16-41-03.192722,"41.94,73.87"
2024-05-28_16-41-03.225523,"78.24,72.26"
2024-05-28_16-41-03.258350,"64.95,81.31"
2024-05-28_16-41-03.291129,"58.75,73.29"
2024-05-28_16-41-03.323681,"84.28,79.29"
2024-05-28_16-41-03.352529,"86.05,89.01"
2024-05-28_16-41-03.385239,"66.39,51.85"
2024-05-28_16-41-03.418032,"16.09,26.78"
2024-05-28_16-41-03.450785,"12.41,24.30"
2024-05-28_16-41-03.483578,"14.10,26.63"
2024-05-28_16-41-03.516415,"48.03,27.69"
2024-05-28_16-41-03.548967,"70.18,39.77"
2024-05-28_16-41-03.577749,"52.24,33.91"
2024-05-28_16-41-03.610548,"70.91,29.25"
2024-05-28_16-41-03.643319,"77.62,20.27"
2024-05-28_16-41-03.676033,"39.63,27.00"
2024-05-28_16-41-03.708981,"40.14,23.53"
2024-05-28_16-41-03.741622,"59.55,23.08"
2024-05-28_16-41-03.774296,"13.26,23.54"
2024-05-28_16-41-03.803061,"14.91,23.80"
2024-05-28_16-41-03.836587,"11.22,26.08"
2024-05-28_16-41-03.868610,"51.85,21.92"
2024-05-28_16-41-03.901350,"44.77,22.04"
2024-05-28_16-41-03.934134,"55.32,25.25"
2024-05-28_16-41-03.966944,"89.48,25.51"
2024-05-28_16-41-03.999581,"80.27,22.97"
2024-05-28_16-41-04.032230,"56.73,24.14"
2024-05-28_16-41-04.061156,"44.73,24.14"
2024-05-28_16-41-04.093851,"11.03,23.70"
2024-05-28_16-41-04.126650,"11.54,27.62"
2024-05-28_16-41-04.159547,"13.64,25.17"
2024-05-28_16-41-04.193142,"63.65,24.75"
2024-05-28_16-41-04.224876,"62.05,27.20"
2024-05-28_16-41-04.257620,"62.51,23.04"
2024-05-28_16-41-04.286605,"53.07,31.23"
2024-05-28_16-41-04.319206,"64.42,33.25"
2024-05-28_16-41-04.352004,"37.44,52.97"
2024-05-28_16-41-04.384733,"27.86,64.43"
2024-05-28_16-41-04.417510,"39.74,57.34"
2024-05-28_16-41-04.450245,"61.57,60.95"
2024-05-28_16-41-04.482918,"79.62,58.08"
2024-05-28_16-41-04.511830,"79.25,46.88"
2024-05-28_16-41-04.544466,"64.33,46.13"
2024-05-28_16-41-04.588476,"63.19,43.12"
2024-05-28_16-41-04.614616,"62.25,45.39"
2024-05-28_16-41-04.642783,"44.32,46.22"
2024-05-28_16-41-04.675487,"60.52,55.62"
2024-05-28_16-41-04.708209,"44.49,53.94"
2024-05-28_16-41-04.736962,"63.74,52.49"
2024-05-28_16-41-04.769815,"71.12,56.29"
2024-05-28_16-41-04.802569,"82.99,57.26"
2024-05-28_16-41-04.835291,"88.06,58.01"
2024-05-28_16-41-04.868137,"74.63,47.90"
2024-05-28_16-41-04.900781,"56.75,43.80"
2024-05-28_16-41-04.933549,"58.68,44.23"
2024-05-28_16-41-04.962298,"37.40,53.85"
2024-05-28_16-41-04.995078,"55.46,47.14"
2024-05-28_16-41-05.027833,"78.37,54.54"
2024-05-28_16-41-05.060730,"70.87,51.59"
2024-05-28_16-41-05.093357,"82.27,56.57"
2024-05-28_16-41-05.126149,"78.81,62.05"
2024-05-28_16-41-05.158847,"89.80,51.64"
2024-05-28_16-41-05.187988,"82.22,50.31"
2024-05-28_16-41-05.220333,"75.06,48.59"
2024-05-28_16-41-05.253185,"66.31,48.48"
2024-05-28_16-41-05.286757,"64.80,48.69"
2024-05-28_16-41-05.318714,"62.31,42.41"
2024-05-28_16-41-05.351381,"80.17,45.13"
2024-05-28_16-41-05.384141,"42.82,41.95"
2024-05-28_16-41-05.412935,"53.15,57.87"
2024-05-28_16-41-05.445655,"80.56,48.92"
2024-05-28_16-41-05.478429,"66.41,36.60"
2024-05-28_16-41-05.511263,"80.08,33.43"
2024-05-28_16-41-05.543936,"42.37,40.41"
2024-05-28_16-41-05.576656,"64.42,48.73"
2024-05-28_16-41-05.609612,"47.60,35.00"
2024-05-28_16-41-05.638187,"49.81,34.38"
2024-05-28_16-41-05.670941,"12.75,34.27"
2024-05-28_16-41-05.703759,"9.35,59.34"
2024-05-28_16-41-05.736928,"43.42,62.40"
2024-05-28_16-41-05.769226,"50.92,76.22"
2024-05-28_16-41-05.801974,"67.75,66.59"
2024-05-28_16-41-05.834685,"80.97,27.81"
2024-05-28_16-41-05.863506,"73.81,24.90"
2024-05-28_16-41-05.896213,"84.05,24.82"
2024-05-28_16-41-05.928991,"84.50,30.68"
2024-05-28_16-41-05.961922,"95.32,26.73"
2024-05-28_16-41-05.994481,"86.77,26.10"
2024-05-28_16-41-06.027302,"69.00,26.78"
2024-05-28_16-41-06.060282,"93.10,81.85"
2024-05-28_16-41-06.089392,"71.34,64.67"
2024-05-28_16-41-06.121542,"60.10,77.13"
2024-05-28_16-41-06.154317,"51.18,71.31"
2024-05-28_16-41-06.187453,"65.37,66.38"
2024-05-28_16-41-06.219823,"67.33,69.60"
2024-05-28_16-41-06.252582,"67.28,70.93"
2024-05-28_16-41-06.285299,"36.64,72.01"
2024-05-28_16-41-06.314070,"74.51,89.23"
2024-05-28_16-41-06.346841,"36.11,80.93"
2024-05-28_16-41-06.379598,"88.15,72.21"
2024-05-28_16-41-06.412382,"73.27,72.31"
2024-05-28_16-41-06.445220,"37.17,79.69"
2024-05-28_16-41-06.477918,"60.53,62.16"
2024-05-28_16-41-06.510653,"62.36,61.34"
2024-05-28_16-41-06.539655,"60.35,63.83"
2024-05-28_16-41-06.572163,"75.27,62.15"
2024-05-28_16-41-06.604913,"89.74,73.41"
2024-05-28_16-41-06.637632,"98.59,85.01"
2024-05-28_16-41-06.670466,"60.84,80.30"
2024-05-28_16-41-06.703200,"40.41,66.63"
2024-05-28_16-41-06.735894,"40.46,66.84"
2024-05-28_16-41-06.768623,"77.17,70.47"
2024-05-28_16-41-06.797453,"98.25,84.80"
2024-05-28_16-41-06.830157,"88.30,73.98"
2024-05-28_16-41-06.862995,"88.79,74.64"
2024-05-28_16-41-06.895701,"87.95,74.53"
2024-05-28_16-41-06.928480,"89.27,73.94"
2024-05-28_16-41-06.961277,"98.29,85.01"
2024-05-28_16-41-06.993864,"88.39,73.94"
2024-05-28_16-41-07.022688,"89.49,57.69"
2024-05-28_16-41-07.055508,"78.06,66.89"
2024-05-28_16-41-07.097906,"39.55,74.11"
2024-05-28_16-41-07.121129,"80.15,67.50"
2024-05-28_16-41-07.153781,"88.31,75.10"
2024-05-28_16-41-07.186584,"88.42,74.52"
2024-05-28_16-41-07.219247,"89.42,73.97"
2024-05-28_16-41-07.247999,"98.18,84.77"
2024-05-28_16-41-07.280761,"88.43,74.52"
2024-05-28_16-41-07.313552,"88.05,75.09"
2024-05-28_16-41-07.346298,"88.67,74.81"
2024-05-28_16-41-07.379066,"96.71,74.65"
2024-05-28_16-41-07.412002,"99.61,77.63"
2024-05-28_16-41-07.444560,"83.73,70.87"
2024-05-28_16-41-07.473282,"88.69,67.78"
2024-05-28_16-41-07.506092,"38.92,66.26"
2024-05-28_16-41-07.539009,"44.34,66.48"
2024-05-28_16-41-07.571701,"39.75,74.50"
2024-05-28_16-41-07.604442,"40.44,67.23"
2024-05-28_16-41-07.637258,"40.34,66.59"
2024-05-28_16-41-07.669808,"41.44,66.77"
2024-05-28_16-41-07.698558,"76.92,84.40"
2024-05-28_16-41-07.731348,"41.23,64.59"
2024-05-28_16-41-07.764234,"41.60,66.80"
2024-05-28_16-41-07.796875,"60.24,56.30"
2024-05-28_16-41-07.829663,"41.90,73.91"
2024-05-28_16-41-07.862507,"94.26,29.05"
2024-05-28_16-41-07.895084,"87.68,17.77"
2024-05-28_16-41-07.923893,"67.00,63.82"
2024-05-28_16-41-07.956669,"55.01,68.66"
2024-05-28_16-41-07.989534,"103.07,24.27"
2024-05-28_16-41-08.022212,"89.08,21.34"
2024-05-28_16-41-08.054970,"64.43,53.95"
2024-05-28_16-41-08.087796,"78.42,20.11"
2024-05-28_16-41-08.120441,"77.09,19.07"
2024-05-28_16-41-08.149183,"94.95,27.35"
2024-05-28_16-41-08.181927,"86.72,25.46"
2024-05-28_16-41-08.214796,"38.12,63.64"
2024-05-28_16-41-08.247511,"55.79,73.22"
2024-05-28_16-41-08.280245,"72.39,50.08"
2024-05-28_16-41-08.313034,"77.40,62.78"
2024-05-28_16-41-08.345717,"73.85,31.81"
2024-05-28_16-41-08.374523,"84.40,13.48"
2024-05-28_16-41-08.407255,"69.38,18.68"
2024-05-28_16-41-08.439998,"58.34,79.02"
2024-05-28_16-41-08.472787,"58.47,57.63"
2024-05-28_16-41-08.505530,"54.87,35.51"
2024-05-28_16-41-08.538260,"69.93,39.87"
2024-05-28_16-41-08.571001,"83.88,27.35"
2024-05-28_16-41-08.599809,"51.45,81.36"
2024-05-28_16-41-08.632572,"20.82,79.76"
2024-05-28_16-41-08.665323,"14.45,90.90"
2024-05-28_16-41-08.698045,"55.52,64.01"
2024-05-28_16-41-08.730830,"63.54,46.41"
2024-05-28_16-41-08.763599,"52.72,67.63"
2024-05-28_16-41-08.796514,"42.08,67.82"
2024-05-28_16-41-08.825043,"29.70,83.97"
2024-05-28_16-41-08.857935,"26.73,92.24"
2024-05-28_16-41-08.890547,"62.38,59.01"
2024-05-28_16-41-08.923389,"75.85,29.16"
2024-05-28_16-41-08.956123,"75.63,29.30"
2024-05-28_16-41-08.988856,"76.20,29.59"
2024-05-28_16-41-09.021611,"76.23,27.91"
