timestamp,EMG
2024-05-28_13-45-20.190883,"59.38,67.26"
2024-05-28_13-45-20.223542,"65.44,73.39"
2024-05-28_13-45-20.256229,"62.31,70.35"
2024-05-28_13-45-20.289000,"68.97,91.14"
2024-05-28_13-45-20.321843,"88.02,78.68"
2024-05-28_13-45-20.354761,"67.67,66.00"
2024-05-28_13-45-20.387223,"83.46,38.95"
2024-05-28_13-45-20.415946,"89.79,50.85"
2024-05-28_13-45-20.448729,"72.89,58.08"
2024-05-28_13-45-20.481539,"51.32,73.51"
2024-05-28_13-45-20.514237,"56.50,64.28"
2024-05-28_13-45-20.547066,"54.83,71.46"
2024-05-28_13-45-20.579840,"62.55,66.63"
2024-05-28_13-45-20.612519,"60.48,78.46"
2024-05-28_13-45-20.641209,"51.84,75.85"
2024-05-28_13-45-20.673991,"84.22,75.70"
2024-05-28_13-45-20.706847,"71.08,74.68"
2024-05-28_13-45-20.739614,"86.07,48.45"
2024-05-28_13-45-20.772705,"88.27,40.40"
2024-05-28_13-45-20.805244,"74.20,52.54"
2024-05-28_13-45-20.838236,"61.17,48.06"
2024-05-28_13-45-20.866891,"42.49,71.30"
2024-05-28_13-45-20.899322,"60.17,77.93"
2024-05-28_13-45-20.932206,"57.82,68.64"
2024-05-28_13-45-20.965002,"70.26,72.66"
2024-05-28_13-45-20.997629,"64.18,69.16"
2024-05-28_13-45-21.030324,"53.83,81.91"
2024-05-28_13-45-21.063030,"90.94,75.33"
2024-05-28_13-45-21.091876,"61.07,67.38"
2024-05-28_13-45-21.124782,"79.88,60.26"
2024-05-28_13-45-21.157511,"85.37,47.05"
2024-05-28_13-45-21.190178,"61.05,48.38"
2024-05-28_13-45-21.222888,"61.48,60.33"
2024-05-28_13-45-21.255640,"57.76,65.29"
2024-05-28_13-45-21.288330,"53.25,70.06"
2024-05-28_13-45-21.317135,"61.55,65.51"
2024-05-28_13-45-21.349895,"72.56,78.80"
2024-05-28_13-45-21.382618,"49.49,73.75"
2024-05-28_13-45-21.415359,"83.66,72.58"
2024-05-28_13-45-21.448136,"88.36,77.82"
2024-05-28_13-45-21.480852,"81.27,68.28"
2024-05-28_13-45-21.513553,"90.92,40.21"
2024-05-28_13-45-21.543282,"80.41,63.14"
2024-05-28_13-45-21.575419,"66.92,46.88"
2024-05-28_13-45-21.607881,"42.85,70.27"
2024-05-28_13-45-21.640643,"59.47,74.54"
2024-05-28_13-45-21.673366,"59.78,66.77"
2024-05-28_13-45-21.706122,"52.05,72.57"
2024-05-28_13-45-21.738917,"69.33,68.57"
2024-05-28_13-45-21.767584,"50.82,81.46"
2024-05-28_13-45-21.800328,"84.05,71.58"
2024-05-28_13-45-21.833081,"60.26,68.71"
2024-05-28_13-45-21.865905,"86.67,66.45"
2024-05-28_13-45-21.898686,"77.52,67.34"
2024-05-28_13-45-21.931423,"59.54,78.65"
2024-05-28_13-45-21.964200,"65.64,59.18"
2024-05-28_13-45-21.992840,"55.04,64.18"
2024-05-28_13-45-22.025744,"51.80,70.16"
2024-05-28_13-45-22.058426,"62.92,65.25"
2024-05-28_13-45-22.091398,"75.92,78.95"
2024-05-28_13-45-22.123945,"54.40,74.48"
2024-05-28_13-45-22.156749,"54.02,74.41"
2024-05-28_13-45-22.189380,"91.89,70.55"
2024-05-28_13-45-22.218146,"75.70,68.86"
2024-05-28_13-45-22.250930,"85.48,42.29"
2024-05-28_13-45-22.283652,"80.89,40.40"
2024-05-28_13-45-22.316479,"66.98,69.79"
2024-05-28_13-45-22.349268,"50.50,55.94"
2024-05-28_13-45-22.382023,"60.52,75.10"
2024-05-28_13-45-22.414670,"58.35,66.97"
2024-05-28_13-45-22.447360,"53.10,71.62"
2024-05-28_13-45-22.476161,"70.51,68.89"
2024-05-28_13-45-22.508876,"50.04,85.36"
2024-05-28_13-45-22.541757,"97.15,85.16"
2024-05-28_13-45-22.574591,"59.13,69.59"
2024-05-28_13-45-22.607281,"79.97,39.35"
2024-05-28_13-45-22.639949,"104.67,47.29"
2024-05-28_13-45-22.672675,"65.68,57.04"
2024-05-28_13-45-22.701427,"69.93,60.33"
2024-05-28_13-45-22.734194,"55.41,64.95"
2024-05-28_13-45-22.766962,"52.91,69.92"
2024-05-28_13-45-22.800045,"63.08,66.83"
2024-05-28_13-45-22.832508,"63.32,77.89"
2024-05-28_13-45-22.865124,"52.97,73.60"
2024-05-28_13-45-22.897933,"54.18,76.39"
2024-05-28_13-45-22.926696,"78.67,73.57"
2024-05-28_13-45-22.960313,"80.91,74.26"
2024-05-28_13-45-22.994788,"85.78,62.12"
2024-05-28_13-45-23.026976,"67.41,41.72"
2024-05-28_13-45-23.062795,"68.03,65.53"
2024-05-28_13-45-23.090462,"48.99,56.22"
2024-05-28_13-45-23.123140,"58.48,75.55"
2024-05-28_13-45-23.152023,"58.27,66.22"
2024-05-28_13-45-23.184744,"53.14,72.14"
2024-05-28_13-45-23.217503,"77.52,69.54"
2024-05-28_13-45-23.250286,"49.18,85.49"
2024-05-28_13-45-23.283029,"86.99,85.33"
2024-05-28_13-45-23.315757,"61.66,70.26"
2024-05-28_13-45-23.348456,"79.22,60.18"
2024-05-28_13-45-23.377205,"101.92,46.88"
2024-05-28_13-45-23.409967,"65.72,57.67"
2024-05-28_13-45-23.442802,"70.19,59.79"
2024-05-28_13-45-23.475490,"54.62,63.98"
2024-05-28_13-45-23.508671,"53.10,70.34"
2024-05-28_13-45-23.541286,"62.67,66.54"
2024-05-28_13-45-23.573748,"75.07,77.05"
2024-05-28_13-45-23.602471,"49.95,74.39"
2024-05-28_13-45-23.636483,"71.52,73.14"
2024-05-28_13-45-23.668114,"88.75,77.90"
2024-05-28_13-45-23.700855,"78.74,68.41"
2024-05-28_13-45-23.733563,"90.23,62.09"
2024-05-28_13-45-23.766263,"67.36,66.94"
2024-05-28_13-45-23.798983,"64.24,46.05"
2024-05-28_13-45-23.827803,"44.66,70.91"
2024-05-28_13-45-23.860510,"58.41,74.96"
2024-05-28_13-45-23.893260,"58.47,66.49"
2024-05-28_13-45-23.926084,"82.27,73.95"
2024-05-28_13-45-23.958807,"78.08,70.84"
2024-05-28_13-45-23.991564,"49.32,84.67"
2024-05-28_13-45-24.024286,"97.20,85.31"
2024-05-28_13-45-24.053172,"61.33,70.03"
2024-05-28_13-45-24.085844,"79.88,59.79"
2024-05-28_13-45-24.118576,"95.24,46.76"
2024-05-28_13-45-24.151351,"63.00,61.14"
2024-05-28_13-45-24.184173,"70.67,59.84"
2024-05-28_13-45-24.216885,"55.54,64.47"
2024-05-28_13-45-24.249528,"52.86,71.15"
2024-05-28_13-45-24.278442,"62.43,66.12"
2024-05-28_13-45-24.311135,"66.66,78.36"
2024-05-28_13-45-24.343827,"49.87,75.51"
2024-05-28_13-45-24.376571,"92.38,85.52"
2024-05-28_13-45-24.409347,"74.11,77.25"
2024-05-28_13-45-24.442118,"81.05,67.18"
2024-05-28_13-45-24.474835,"92.72,40.95"
2024-05-28_13-45-24.503514,"79.95,61.72"
2024-05-28_13-45-24.536335,"67.18,46.13"
2024-05-28_13-45-24.569110,"42.92,70.36"
2024-05-28_13-45-24.601823,"61.61,75.47"
2024-05-28_13-45-24.634597,"58.45,66.71"
2024-05-28_13-45-24.667364,"53.70,72.56"
2024-05-28_13-45-24.700072,"71.18,69.75"
2024-05-28_13-45-24.728813,"50.04,84.04"
2024-05-28_13-45-24.761617,"85.02,72.89"
2024-05-28_13-45-24.794341,"59.78,70.56"
2024-05-28_13-45-24.827125,"78.63,60.12"
2024-05-28_13-45-24.859928,"102.07,46.72"
2024-05-28_13-45-24.892670,"64.17,58.60"
2024-05-28_13-45-24.925325,"49.41,78.53"
2024-05-28_13-45-24.954059,"56.30,64.46"
2024-05-28_13-45-24.986833,"54.40,70.77"
2024-05-28_13-45-25.019619,"61.76,65.11"
2024-05-28_13-45-25.052369,"68.61,77.92"
2024-05-28_13-45-25.085164,"58.02,74.09"
2024-05-28_13-45-25.117928,"52.72,81.92"
2024-05-28_13-45-25.150654,"85.55,67.91"
2024-05-28_13-45-25.183319,"78.58,70.76"
2024-05-28_13-45-25.212107,"83.28,42.05"
2024-05-28_13-45-25.244873,"80.75,41.46"
2024-05-28_13-45-25.277749,"67.10,68.12"
2024-05-28_13-45-25.310464,"52.90,55.95"
2024-05-28_13-45-25.343195,"58.85,75.25"
2024-05-28_13-45-25.375936,"59.34,67.37"
2024-05-28_13-45-25.408601,"54.15,71.17"
2024-05-28_13-45-25.437356,"78.12,67.93"
2024-05-28_13-45-25.470160,"47.83,72.13"
2024-05-28_13-45-25.502901,"68.74,84.46"
2024-05-28_13-45-25.535880,"75.01,73.22"
2024-05-28_13-45-25.568488,"76.60,75.26"
2024-05-28_13-45-25.601132,"97.10,48.16"
2024-05-28_13-45-25.633873,"53.67,37.79"
2024-05-28_13-45-25.662618,"76.05,75.13"
2024-05-28_13-45-25.695433,"54.24,64.78"
2024-05-28_13-45-25.728159,"52.20,70.02"
2024-05-28_13-45-25.760954,"62.26,65.03"
2024-05-28_13-45-25.793784,"68.41,77.07"
2024-05-28_13-45-25.826466,"53.93,74.92"
2024-05-28_13-45-25.859117,"53.02,81.36"
2024-05-28_13-45-25.887880,"97.08,80.11"
2024-05-28_13-45-25.920686,"59.06,80.99"
2024-05-28_13-45-25.953441,"85.41,70.16"
2024-05-28_13-45-25.986210,"79.81,41.47"
2024-05-28_13-45-26.018951,"58.60,67.37"
2024-05-28_13-45-26.051756,"54.32,56.55"
2024-05-28_13-45-26.084358,"56.90,74.74"
2024-05-28_13-45-26.113151,"55.88,67.07"
2024-05-28_13-45-26.146030,"52.66,70.44"
2024-05-28_13-45-26.178774,"73.46,67.29"
2024-05-28_13-45-26.211485,"55.68,73.79"
2024-05-28_13-45-26.244247,"52.20,91.44"
2024-05-28_13-45-26.276976,"84.74,79.14"
2024-05-28_13-45-26.309775,"74.27,59.86"
2024-05-28_13-45-26.338437,"88.95,47.76"
2024-05-28_13-45-26.371258,"81.71,39.02"
2024-05-28_13-45-26.403992,"86.07,60.63"
2024-05-28_13-45-26.436752,"48.77,64.49"
2024-05-28_13-45-26.469479,"52.16,70.44"
2024-05-28_13-45-26.502241,"61.81,66.38"
2024-05-28_13-45-26.534898,"71.93,77.30"
2024-05-28_13-45-26.563835,"57.76,73.29"
2024-05-28_13-45-26.596478,"51.46,69.76"
2024-05-28_13-45-26.629250,"80.11,78.66"
2024-05-28_13-45-26.662005,"78.25,72.61"
2024-05-28_13-45-26.694764,"74.31,62.08"
2024-05-28_13-45-26.727531,"88.14,41.35"
2024-05-28_13-45-26.760239,"59.90,45.77"
2024-05-28_13-45-26.788915,"64.73,54.79"
2024-05-28_13-45-26.821777,"55.23,75.01"
2024-05-28_13-45-26.854568,"57.94,66.77"
2024-05-28_13-45-26.887268,"54.15,70.64"
2024-05-28_13-45-26.920224,"73.56,68.86"
2024-05-28_13-45-26.952789,"73.59,62.81"
2024-05-28_13-45-26.985515,"48.58,79.89"
2024-05-28_13-45-27.014249,"90.93,76.25"
2024-05-28_13-45-27.046987,"75.13,75.55"
2024-05-28_13-45-27.079763,"87.90,48.08"
2024-05-28_13-45-27.112554,"81.23,38.51"
2024-05-28_13-45-27.145295,"85.87,62.62"
2024-05-28_13-45-27.178023,"48.54,63.62"
2024-05-28_13-45-27.210753,"52.44,70.70"
2024-05-28_13-45-27.239537,"62.00,65.60"
2024-05-28_13-45-27.272290,"71.79,76.62"
2024-05-28_13-45-27.305019,"59.29,74.33"
2024-05-28_13-45-27.337817,"53.74,70.95"
2024-05-28_13-45-27.370597,"79.02,76.22"
2024-05-28_13-45-27.403378,"78.07,71.95"
2024-05-28_13-45-27.436072,"75.67,77.74"
2024-05-28_13-45-27.464785,"87.36,41.62"
2024-05-28_13-45-27.497527,"74.85,45.18"
2024-05-28_13-45-27.530270,"67.89,48.25"
2024-05-28_13-45-27.563129,"57.36,74.98"
2024-05-28_13-45-27.595840,"56.47,65.98"
2024-05-28_13-45-27.628638,"53.98,70.95"
2024-05-28_13-45-27.661345,"71.85,68.31"
2024-05-28_13-45-27.690040,"50.34,72.27"
2024-05-28_13-45-27.722853,"68.69,84.96"
2024-05-28_13-45-27.755595,"78.39,66.61"
2024-05-28_13-45-27.788347,"75.86,75.47"
2024-05-28_13-45-27.821130,"94.85,48.10"
2024-05-28_13-45-27.853857,"53.95,39.11"
2024-05-28_13-45-27.886618,"75.92,53.80"
2024-05-28_13-45-27.915327,"52.12,63.98"
2024-05-28_13-45-27.948108,"53.94,71.01"
2024-05-28_13-45-27.980846,"61.58,67.26"
2024-05-28_13-45-28.013645,"80.04,79.22"
2024-05-28_13-45-28.046509,"57.09,73.63"
2024-05-28_13-45-28.079150,"51.60,83.07"
2024-05-28_13-45-28.112223,"98.41,79.06"
2024-05-28_13-45-28.140637,"77.94,72.14"
2024-05-28_13-45-28.173370,"75.96,61.64"
2024-05-28_13-45-28.206140,"89.57,41.62"
2024-05-28_13-45-28.238880,"72.14,62.88"
2024-05-28_13-45-28.271652,"59.18,55.65"
2024-05-28_13-45-28.304456,"55.62,74.35"
2024-05-28_13-45-28.337117,"58.64,66.35"
2024-05-28_13-45-28.365861,"53.70,72.67"
2024-05-28_13-45-28.398607,"80.27,68.27"
2024-05-28_13-45-28.431403,"51.41,72.21"
2024-05-28_13-45-28.464171,"68.90,83.91"
2024-05-28_13-45-28.496928,"77.74,65.69"
2024-05-28_13-45-28.529742,"76.03,75.58"
2024-05-28_13-45-28.562484,"92.65,47.20"
2024-05-28_13-45-28.595334,"70.38,38.01"
2024-05-28_13-45-28.623943,"85.79,61.84"
2024-05-28_13-45-28.656654,"49.13,63.83"
2024-05-28_13-45-28.689423,"52.20,70.79"
2024-05-28_13-45-28.725409,"62.70,66.21"
2024-05-28_13-45-28.755011,"66.81,76.93"
2024-05-28_13-45-28.787701,"57.08,74.88"
2024-05-28_13-45-28.820390,"51.92,82.11"
2024-05-28_13-45-28.849147,"97.79,79.23"
2024-05-28_13-45-28.881915,"77.34,71.17"
2024-05-28_13-45-28.914747,"80.16,62.40"
2024-05-28_13-45-28.947462,"90.78,41.64"
2024-05-28_13-45-28.980219,"57.58,65.60"
2024-05-28_13-45-29.013000,"45.05,74.11"
2024-05-28_13-45-29.045711,"60.51,74.42"
2024-05-28_13-45-29.074419,"57.70,67.33"
2024-05-28_13-45-29.107195,"55.95,71.91"
2024-05-28_13-45-29.139966,"79.16,67.79"
2024-05-28_13-45-29.172781,"48.58,73.91"
2024-05-28_13-45-29.205521,"68.86,84.38"
2024-05-28_13-45-29.238202,"76.01,69.99"
2024-05-28_13-45-29.270917,"76.38,60.21"
2024-05-28_13-45-29.299750,"96.96,48.07"
2024-05-28_13-45-29.332458,"68.51,38.09"
2024-05-28_13-45-29.365223,"76.11,66.39"
2024-05-28_13-45-29.397999,"51.65,64.69"
2024-05-28_13-45-29.430763,"52.70,70.16"
2024-05-28_13-45-29.463470,"61.44,66.33"
2024-05-28_13-45-29.496193,"69.64,78.12"
2024-05-28_13-45-29.524987,"55.69,73.42"
2024-05-28_13-45-29.557794,"52.85,80.20"
2024-05-28_13-45-29.590498,"98.74,80.26"
2024-05-28_13-45-29.623267,"76.14,71.44"
2024-05-28_13-45-29.656040,"79.65,61.39"
2024-05-28_13-45-29.688797,"91.46,41.87"
2024-05-28_13-45-29.721481,"70.07,62.88"
2024-05-28_13-45-29.750256,"61.64,56.12"
2024-05-28_13-45-29.782970,"57.68,74.39"
2024-05-28_13-45-29.815746,"59.99,67.22"
2024-05-28_13-45-29.848524,"54.80,70.82"
2024-05-28_13-45-29.881306,"80.97,67.90"
2024-05-28_13-45-29.914041,"52.31,72.94"
2024-05-28_13-45-29.946705,"68.34,84.96"
2024-05-28_13-45-29.975489,"77.14,68.58"
2024-05-28_13-45-30.008238,"65.35,74.41"
2024-05-28_13-45-30.041047,"99.11,69.23"
2024-05-28_13-45-30.073789,"70.05,39.73"
2024-05-28_13-45-30.106511,"76.48,66.39"
2024-05-28_13-45-30.139344,"50.85,63.57"
2024-05-28_13-45-30.172011,"52.72,70.00"
2024-05-28_13-45-30.200791,"61.86,65.80"
2024-05-28_13-45-30.233545,"66.23,78.23"
2024-05-28_13-45-30.266327,"57.17,73.08"
2024-05-28_13-45-30.299096,"52.34,69.06"
2024-05-28_13-45-30.331836,"92.04,77.57"
2024-05-28_13-45-30.364575,"76.56,71.01"
2024-05-28_13-45-30.397247,"80.13,62.49"
2024-05-28_13-45-30.426006,"89.55,40.98"
2024-05-28_13-45-30.458814,"73.49,63.88"
2024-05-28_13-45-30.491569,"58.57,55.72"
2024-05-28_13-45-30.524328,"57.42,75.39"
2024-05-28_13-45-30.557132,"57.37,66.36"
2024-05-28_13-45-30.589836,"54.00,71.32"
2024-05-28_13-45-30.622522,"80.45,67.71"
2024-05-28_13-45-30.651253,"48.65,75.38"
2024-05-28_13-45-30.684058,"88.50,84.90"
2024-05-28_13-45-30.716865,"59.97,71.17"
2024-05-28_13-45-30.749651,"77.77,60.17"
2024-05-28_13-45-30.782377,"99.43,46.86"
2024-05-28_13-45-30.815109,"67.16,58.41"
2024-05-28_13-45-30.847866,"66.89,60.78"
2024-05-28_13-45-30.876541,"54.60,65.25"
2024-05-28_13-45-30.909332,"52.55,70.40"
2024-05-28_13-45-30.942069,"62.06,66.87"
2024-05-28_13-45-30.974845,"68.12,79.90"
2024-05-28_13-45-31.007618,"66.30,64.77"
2024-05-28_13-45-31.040405,"77.58,70.51"
2024-05-28_13-45-31.073082,"72.20,76.89"
2024-05-28_13-45-31.101825,"84.25,66.90"
2024-05-28_13-45-31.134590,"85.76,40.11"
2024-05-28_13-45-31.167329,"74.20,53.10"
2024-05-28_13-45-31.200120,"61.71,48.48"
2024-05-28_13-45-31.232893,"45.53,69.57"
2024-05-28_13-45-31.265609,"61.97,76.00"
2024-05-28_13-45-31.298387,"58.56,67.17"
2024-05-28_13-45-31.327086,"64.27,73.11"
2024-05-28_13-45-31.359845,"62.18,70.25"
2024-05-28_13-45-31.392631,"78.77,81.62"
2024-05-28_13-45-31.425374,"81.15,77.32"
2024-05-28_13-45-31.458169,"73.01,65.83"
2024-05-28_13-45-31.490917,"86.46,38.74"
2024-05-28_13-45-31.523633,"80.92,45.04"
2024-05-28_13-45-31.556386,"65.29,71.13"
2024-05-28_13-45-31.585134,"51.76,71.76"
2024-05-28_13-45-31.617905,"57.91,64.64"
2024-05-28_13-45-31.650687,"55.26,71.88"
2024-05-28_13-45-31.683404,"69.68,67.71"
2024-05-28_13-45-31.716192,"50.89,79.54"
2024-05-28_13-45-31.748910,"69.35,82.37"
2024-05-28_13-45-31.781670,"84.67,65.17"
2024-05-28_13-45-31.810412,"75.30,73.75"
2024-05-28_13-45-31.843142,"89.97,48.57"
2024-05-28_13-45-31.875956,"50.48,39.59"
2024-05-28_13-45-31.908760,"85.74,63.73"
2024-05-28_13-45-31.941496,"54.77,65.19"
2024-05-28_13-45-31.974208,"46.22,71.56"
2024-05-28_13-45-32.006927,"76.79,78.24"
2024-05-28_13-45-32.035720,"69.24,67.86"
2024-05-28_13-45-32.068436,"60.57,73.69"
2024-05-28_13-45-32.101249,"55.82,81.29"
2024-05-28_13-45-32.134141,"81.88,75.26"
2024-05-28_13-45-32.166842,"78.44,76.51"
2024-05-28_13-45-32.199465,"83.68,44.56"
2024-05-28_13-45-32.232138,"91.50,38.75"
2024-05-28_13-45-32.260911,"68.18,68.34"
2024-05-28_13-45-32.293698,"57.64,62.40"
2024-05-28_13-45-32.326466,"50.19,70.70"
2024-05-28_13-45-32.359271,"59.42,65.81"
2024-05-28_13-45-32.392019,"53.89,72.66"
2024-05-28_13-45-32.424763,"69.43,67.91"
2024-05-28_13-45-32.464865,"50.61,86.08"
2024-05-28_13-45-32.486680,"96.67,68.75"
2024-05-28_13-45-32.520618,"65.41,69.57"
2024-05-28_13-45-32.559698,"84.94,57.78"
2024-05-28_13-45-32.584613,"90.67,46.69"
2024-05-28_13-45-32.617307,"60.33,49.14"
2024-05-28_13-45-32.650023,"59.79,59.78"
2024-05-28_13-45-32.682740,"58.38,64.83"
2024-05-28_13-45-32.711606,"47.29,70.69"
2024-05-28_13-45-32.744279,"61.24,76.04"
2024-05-28_13-45-32.777253,"68.23,69.16"
2024-05-28_13-45-32.809798,"50.58,75.37"
2024-05-28_13-45-32.842619,"90.23,69.47"
2024-05-28_13-45-32.875230,"71.06,79.80"
2024-05-28_13-45-32.907994,"80.24,41.23"
2024-05-28_13-45-32.936865,"85.14,43.16"
2024-05-28_13-45-32.969588,"57.36,60.31"
2024-05-28_13-45-33.002271,"54.87,67.58"
2024-05-28_13-45-33.035058,"56.06,75.61"
2024-05-28_13-45-33.067805,"51.93,70.88"
2024-05-28_13-45-33.100597,"58.35,68.08"
2024-05-28_13-45-33.133254,"67.54,72.87"
2024-05-28_13-45-33.162069,"56.93,69.40"
2024-05-28_13-45-33.194806,"84.75,80.90"
2024-05-28_13-45-33.227594,"72.71,78.82"
2024-05-28_13-45-33.260324,"77.74,66.60"
2024-05-28_13-45-33.293121,"81.06,34.16"
2024-05-28_13-45-33.326133,"67.71,60.04"
2024-05-28_13-45-33.358543,"66.40,64.96"
2024-05-28_13-45-33.387244,"52.23,71.32"
2024-05-28_13-45-33.420024,"62.80,66.36"
2024-05-28_13-45-33.452793,"48.87,69.87"
2024-05-28_13-45-33.485560,"66.16,78.85"
2024-05-28_13-45-33.518324,"50.79,71.86"
2024-05-28_13-45-33.551159,"68.67,76.51"
2024-05-28_13-45-33.583812,"83.43,71.88"
2024-05-28_13-45-33.612565,"84.59,77.54"
2024-05-28_13-45-33.645299,"88.68,41.19"
2024-05-28_13-45-33.678114,"51.85,41.20"
2024-05-28_13-45-33.710837,"64.09,59.29"
2024-05-28_13-45-33.743628,"58.87,65.22"
2024-05-28_13-45-33.776383,"56.32,75.01"
2024-05-28_13-45-33.809034,"54.41,72.32"
2024-05-28_13-45-33.837795,"64.30,68.22"
2024-05-28_13-45-33.870607,"53.63,74.11"
2024-05-28_13-45-33.903334,"68.18,71.57"
2024-05-28_13-45-33.936099,"60.91,82.31"
2024-05-28_13-45-33.968863,"78.83,61.75"
2024-05-28_13-45-34.001650,"76.67,67.97"
2024-05-28_13-45-34.034378,"62.35,76.06"
2024-05-28_13-45-34.063064,"65.31,61.30"
2024-05-28_13-45-34.095910,"54.62,65.78"
2024-05-28_13-45-34.128632,"54.53,71.14"
2024-05-28_13-45-34.161397,"62.76,66.20"
2024-05-28_13-45-34.194137,"66.42,70.92"
2024-05-28_13-45-34.226925,"51.42,80.47"
2024-05-28_13-45-34.259779,"88.27,74.65"
2024-05-28_13-45-34.292396,"73.63,76.62"
2024-05-28_13-45-34.321161,"82.47,67.67"
2024-05-28_13-45-34.353872,"89.12,39.16"
2024-05-28_13-45-34.386704,"75.01,52.96"
2024-05-28_13-45-34.419456,"59.38,65.80"
2024-05-28_13-45-34.452197,"51.96,70.61"
2024-05-28_13-45-34.484953,"61.00,65.09"
2024-05-28_13-45-34.517689,"73.15,76.96"
2024-05-28_13-45-34.546486,"58.52,74.16"
2024-05-28_13-45-34.579155,"52.70,68.47"
2024-05-28_13-45-34.611916,"92.36,78.34"
2024-05-28_13-45-34.644686,"76.21,72.77"
2024-05-28_13-45-34.677496,"77.45,41.93"
2024-05-28_13-45-34.710150,"90.89,42.43"
2024-05-28_13-45-34.742940,"71.79,62.22"
2024-05-28_13-45-34.771636,"64.24,55.77"
2024-05-28_13-45-34.804425,"57.76,74.50"
2024-05-28_13-45-34.837207,"59.36,66.45"
2024-05-28_13-45-34.869938,"54.37,72.22"
2024-05-28_13-45-34.903941,"76.93,67.86"
2024-05-28_13-45-34.935641,"48.82,73.45"
2024-05-28_13-45-34.968464,"67.58,83.01"
2024-05-28_13-45-34.996938,"56.03,72.03"
2024-05-28_13-45-35.029769,"70.84,76.49"
2024-05-28_13-45-35.062520,"101.60,47.50"
2024-05-28_13-45-35.095245,"51.60,63.89"
2024-05-28_13-45-35.127973,"63.65,60.01"
2024-05-28_13-45-35.160733,"52.28,64.20"
2024-05-28_13-45-35.193459,"52.30,70.79"
2024-05-28_13-45-35.222178,"63.21,65.56"
2024-05-28_13-45-35.254951,"72.99,79.27"
2024-05-28_13-45-35.287688,"51.64,74.85"
2024-05-28_13-45-35.320479,"83.45,73.11"
2024-05-28_13-45-35.353230,"74.64,76.77"
2024-05-28_13-45-35.385970,"82.31,66.89"
2024-05-28_13-45-35.418686,"95.12,40.71"
2024-05-28_13-45-35.447532,"76.90,60.82"
2024-05-28_13-45-35.480256,"72.76,48.15"
2024-05-28_13-45-35.512987,"44.92,69.65"
2024-05-28_13-45-35.545761,"60.69,76.24"
2024-05-28_13-45-35.578516,"59.06,67.84"
2024-05-28_13-45-35.611269,"63.01,72.14"
2024-05-28_13-45-35.643930,"59.57,69.76"
2024-05-28_13-45-35.672778,"78.64,82.15"
2024-05-28_13-45-35.705552,"80.13,77.44"
2024-05-28_13-45-35.738542,"72.00,64.58"
2024-05-28_13-45-35.773314,"87.28,38.95"
2024-05-28_13-45-35.806012,"67.03,45.54"
2024-05-28_13-45-35.836537,"65.89,52.55"
2024-05-28_13-45-35.869157,"51.41,71.86"
2024-05-28_13-45-35.897946,"58.80,65.90"
2024-05-28_13-45-35.930798,"55.70,70.65"
2024-05-28_13-45-35.963597,"69.73,68.95"
2024-05-28_13-45-35.996351,"66.31,82.49"
2024-05-28_13-45-36.029122,"74.27,82.40"
2024-05-28_13-45-36.061817,"81.05,69.18"
2024-05-28_13-45-36.094502,"78.68,58.86"
2024-05-28_13-45-36.123298,"93.57,47.45"
2024-05-28_13-45-36.156010,"68.56,38.52"
2024-05-28_13-45-36.188820,"64.74,61.35"
2024-05-28_13-45-36.221703,"57.44,65.06"
2024-05-28_13-45-36.254323,"47.57,69.80"
2024-05-28_13-45-36.287095,"63.93,76.86"
2024-05-28_13-45-36.319751,"73.09,68.78"
2024-05-28_13-45-36.348512,"50.09,73.29"
2024-05-28_13-45-36.381273,"87.07,73.88"
2024-05-28_13-45-36.414018,"72.24,80.63"
2024-05-28_13-45-36.446858,"77.98,61.37"
2024-05-28_13-45-36.479633,"84.37,44.45"
2024-05-28_13-45-36.512387,"77.52,56.12"
2024-05-28_13-45-36.545049,"72.68,46.99"
2024-05-28_13-45-36.573762,"55.98,76.12"
2024-05-28_13-45-36.606565,"52.32,70.75"
2024-05-28_13-45-36.639316,"58.01,65.54"
2024-05-28_13-45-36.672085,"68.33,72.36"
2024-05-28_13-45-36.704875,"62.60,70.42"
2024-05-28_13-45-36.737682,"85.99,80.83"
2024-05-28_13-45-36.770303,"73.46,78.37"
2024-05-28_13-45-36.799176,"78.11,67.62"
2024-05-28_13-45-36.831916,"92.67,34.61"
2024-05-28_13-45-36.864679,"67.44,57.23"
2024-05-28_13-45-36.897332,"64.51,47.86"
2024-05-28_13-45-36.930110,"52.25,70.74"
2024-05-28_13-45-36.962869,"61.40,65.47"
2024-05-28_13-45-36.995642,"50.46,69.93"
2024-05-28_13-45-37.024317,"87.58,81.87"
2024-05-28_13-45-37.057100,"62.28,60.43"
2024-05-28_13-45-37.089872,"69.03,77.06"
2024-05-28_13-45-37.122618,"83.50,69.99"
2024-05-28_13-45-37.155382,"82.52,62.18"
2024-05-28_13-45-37.188162,"90.17,41.63"
2024-05-28_13-45-37.220911,"69.16,41.34"
2024-05-28_13-45-37.249639,"63.30,59.04"
2024-05-28_13-45-37.282344,"56.77,64.50"
2024-05-28_13-45-37.315152,"55.65,76.22"
2024-05-28_13-45-37.348412,"54.25,71.90"
2024-05-28_13-45-37.380758,"75.91,67.88"
2024-05-28_13-45-37.413431,"53.59,75.96"
2024-05-28_13-45-37.446137,"68.49,72.32"
2024-05-28_13-45-37.478854,"61.45,81.74"
2024-05-28_13-45-37.507622,"78.05,61.17"
2024-05-28_13-45-37.540461,"95.71,46.44"
2024-05-28_13-45-37.573157,"71.76,54.38"
2024-05-28_13-45-37.605942,"69.05,61.34"
2024-05-28_13-45-37.638707,"54.53,65.86"
2024-05-28_13-45-37.671512,"52.84,70.87"
2024-05-28_13-45-37.704154,"62.95,66.16"
2024-05-28_13-45-37.732885,"68.80,72.12"
2024-05-28_13-45-37.765720,"52.10,80.39"
2024-05-28_13-45-37.798438,"75.30,75.59"
2024-05-28_13-45-37.831231,"74.65,77.13"
2024-05-28_13-45-37.864077,"81.42,67.37"
2024-05-28_13-45-37.896747,"88.56,39.60"
2024-05-28_13-45-37.929371,"74.82,52.72"
2024-05-28_13-45-37.958178,"60.24,65.56"
2024-05-28_13-45-37.992494,"52.37,70.39"
2024-05-28_13-45-38.023755,"59.55,66.17"
2024-05-28_13-45-38.056505,"91.99,80.56"
2024-05-28_13-45-38.089232,"57.92,73.87"
2024-05-28_13-45-38.121926,"52.48,69.99"
2024-05-28_13-45-38.154700,"101.42,78.13"
2024-05-28_13-45-38.183574,"77.48,72.39"
2024-05-28_13-45-38.216218,"78.26,61.59"
2024-05-28_13-45-38.248993,"92.16,41.98"
2024-05-28_13-45-38.281759,"73.54,64.29"
2024-05-28_13-45-38.314487,"62.50,56.23"
2024-05-28_13-45-38.347249,"57.88,75.26"
2024-05-28_13-45-38.379952,"56.00,66.30"
2024-05-28_13-45-38.408688,"53.47,72.55"
2024-05-28_13-45-38.441506,"76.59,69.35"
2024-05-28_13-45-38.474239,"49.91,82.82"
2024-05-28_13-45-38.507116,"95.76,72.49"
2024-05-28_13-45-38.539834,"61.81,68.77"
2024-05-28_13-45-38.572532,"79.85,59.81"
2024-05-28_13-45-38.605238,"96.20,46.69"
2024-05-28_13-45-38.633964,"59.62,52.48"
2024-05-28_13-45-38.666727,"67.27,74.69"
2024-05-28_13-45-38.699498,"54.44,64.30"
2024-05-28_13-45-38.732289,"53.64,71.19"
2024-05-28_13-45-38.765018,"76.37,67.11"
2024-05-28_13-45-38.797785,"57.23,78.75"
2024-05-28_13-45-38.830501,"52.46,73.94"
2024-05-28_13-45-38.859346,"92.52,77.49"
2024-05-28_13-45-38.892056,"74.80,73.98"
2024-05-28_13-45-38.924845,"90.08,48.46"
2024-05-28_13-45-38.957529,"50.97,39.88"
2024-05-28_13-45-38.990293,"76.08,62.40"
2024-05-28_13-45-39.023082,"53.39,65.23"
2024-05-28_13-45-39.055767,"50.36,73.31"
2024-05-28_13-45-39.084530,"62.14,75.28"
2024-05-28_13-45-39.117313,"64.57,68.52"
2024-05-28_13-45-39.150053,"54.87,73.11"
2024-05-28_13-45-39.183012,"57.12,76.19"
2024-05-28_13-45-39.215600,"90.34,76.40"
2024-05-28_13-45-39.248364,"78.32,76.60"
2024-05-28_13-45-39.281075,"82.65,44.77"
2024-05-28_13-45-39.309866,"91.63,38.53"
2024-05-28_13-45-39.342536,"81.55,65.55"
2024-05-28_13-45-39.375285,"54.14,62.22"
2024-05-28_13-45-39.408040,"50.63,70.72"
2024-05-28_13-45-39.440848,"59.73,65.42"
2024-05-28_13-45-39.473608,"54.35,72.61"
2024-05-28_13-45-39.506386,"70.50,68.03"
2024-05-28_13-45-39.535067,"50.90,85.33"
2024-05-28_13-45-39.567824,"93.57,72.98"
2024-05-28_13-45-39.600590,"66.94,68.43"
2024-05-28_13-45-39.633277,"87.02,35.49"
2024-05-28_13-45-39.666157,"79.52,56.83"
2024-05-28_13-45-39.698929,"55.71,56.04"
2024-05-28_13-45-39.731569,"51.71,72.72"
2024-05-28_13-45-39.764289,"59.82,64.88"
2024-05-28_13-45-39.793082,"48.96,71.25"
2024-05-28_13-45-39.825938,"75.32,77.22"
2024-05-28_13-45-39.858651,"54.82,70.23"
2024-05-28_13-45-39.891366,"52.41,74.71"
2024-05-28_13-45-39.924179,"93.10,78.08"
2024-05-28_13-45-39.956835,"75.31,77.37"
2024-05-28_13-45-39.985562,"85.12,40.86"
2024-05-28_13-45-40.018435,"68.80,42.78"
2024-05-28_13-45-40.051243,"46.07,77.94"
2024-05-28_13-45-40.083875,"58.51,65.03"
2024-05-28_13-45-40.116652,"57.02,75.81"
2024-05-28_13-45-40.149368,"53.46,71.11"
2024-05-28_13-45-40.182072,"66.80,68.55"
2024-05-28_13-45-40.214830,"56.64,73.77"
2024-05-28_13-45-40.243610,"68.48,73.38"
2024-05-28_13-45-40.276409,"77.69,77.38"
2024-05-28_13-45-40.309187,"79.01,62.05"
2024-05-28_13-45-40.342033,"93.78,47.04"
2024-05-28_13-45-40.374733,"59.64,64.07"
2024-05-28_13-45-40.407449,"65.91,63.45"
2024-05-28_13-45-40.440081,"51.26,64.67"
2024-05-28_13-45-40.468876,"52.38,70.83"
2024-05-28_13-45-40.501686,"64.60,66.72"
2024-05-28_13-45-40.534452,"70.71,70.57"
2024-05-28_13-45-40.567295,"52.26,80.70"
2024-05-28_13-45-40.600076,"87.61,74.27"
2024-05-28_13-45-40.632640,"73.71,76.63"
2024-05-28_13-45-40.665356,"79.55,66.74"
2024-05-28_13-45-40.694148,"77.96,40.15"
2024-05-28_13-45-40.726888,"73.95,54.84"
2024-05-28_13-45-40.759693,"59.79,64.68"
2024-05-28_13-45-40.792528,"52.47,71.08"
2024-05-28_13-45-40.825243,"62.01,65.84"
2024-05-28_13-45-40.857975,"70.94,76.20"
2024-05-28_13-45-40.890608,"60.18,74.41"
2024-05-28_13-45-40.919453,"53.82,69.78"
2024-05-28_13-45-40.952239,"91.39,77.85"
2024-05-28_13-45-40.985046,"76.81,71.22"
2024-05-28_13-45-41.017730,"78.42,62.23"
2024-05-28_13-45-41.050512,"87.67,60.72"
2024-05-28_13-45-41.083557,"46.76,67.76"
2024-05-28_13-45-41.116052,"47.00,70.54"
2024-05-28_13-45-41.146104,"60.55,74.39"
2024-05-28_13-45-41.177871,"58.37,67.01"
2024-05-28_13-45-41.210489,"55.70,72.32"
2024-05-28_13-45-41.243135,"70.89,68.30"
2024-05-28_13-45-41.275765,"50.88,81.68"
2024-05-28_13-45-41.308521,"95.16,71.55"
2024-05-28_13-45-41.341175,"61.25,68.21"
2024-05-28_13-45-41.370073,"81.06,60.24"
2024-05-28_13-45-41.402707,"86.34,47.05"
2024-05-28_13-45-41.435468,"58.34,39.66"
2024-05-28_13-45-41.468242,"50.07,73.85"
2024-05-28_13-45-41.501020,"58.07,65.68"
2024-05-28_13-45-41.533785,"54.17,71.11"
2024-05-28_13-45-41.566445,"71.28,66.26"
2024-05-28_13-45-41.595204,"55.38,79.50"
2024-05-28_13-45-41.627978,"51.88,84.11"
2024-05-28_13-45-41.660799,"85.74,64.38"
2024-05-28_13-45-41.693704,"76.57,73.63"
2024-05-28_13-45-41.726338,"91.32,48.22"
2024-05-28_13-45-41.759201,"66.52,38.59"
2024-05-28_13-45-41.791701,"74.08,62.93"
2024-05-28_13-45-41.820558,"54.35,64.58"
2024-05-28_13-45-41.853244,"46.30,69.69"
2024-05-28_13-45-41.886105,"60.55,75.02"
2024-05-28_13-45-41.918777,"67.73,68.39"
2024-05-28_13-45-41.951533,"54.05,74.54"
2024-05-28_13-45-41.984304,"56.89,75.54"
2024-05-28_13-45-42.017012,"88.24,77.19"
2024-05-28_13-45-42.045742,"77.56,76.20"
2024-05-28_13-45-42.078517,"73.70,65.29"
2024-05-28_13-45-42.111278,"46.29,60.90"
2024-05-28_13-45-42.144107,"63.53,47.11"
2024-05-28_13-45-42.176820,"66.95,77.08"
2024-05-28_13-45-42.209601,"51.44,70.81"
2024-05-28_13-45-42.242727,"58.69,66.78"
2024-05-28_13-45-42.275691,"54.02,71.98"
2024-05-28_13-45-42.304170,"60.50,68.71"
2024-05-28_13-45-42.336608,"52.49,83.89"
2024-05-28_13-45-42.369362,"90.43,76.61"
2024-05-28_13-45-42.402297,"68.71,67.79"
2024-05-28_13-45-42.434888,"86.54,34.98"
2024-05-28_13-45-42.467543,"79.29,58.04"
2024-05-28_13-45-42.500226,"56.72,58.16"
2024-05-28_13-45-42.529136,"52.12,73.01"
2024-05-28_13-45-42.562008,"60.68,66.26"
2024-05-28_13-45-42.594600,"48.58,69.18"
2024-05-28_13-45-42.627424,"75.52,78.31"
2024-05-28_13-45-42.660121,"61.19,70.67"
2024-05-28_13-45-42.692833,"52.00,74.01"
2024-05-28_13-45-42.725581,"86.70,75.69"
2024-05-28_13-45-42.756291,"77.00,78.30"
2024-05-28_13-45-42.787158,"84.01,41.39"
2024-05-28_13-45-42.819870,"78.21,42.21"
2024-05-28_13-45-42.853075,"84.75,59.03"
2024-05-28_13-45-42.885385,"52.94,65.53"
2024-05-28_13-45-42.918088,"55.18,75.05"
2024-05-28_13-45-42.950820,"54.08,71.75"
2024-05-28_13-45-42.979696,"70.97,67.52"
2024-05-28_13-45-43.012505,"58.88,72.65"
2024-05-28_13-45-43.045146,"68.89,80.71"
2024-05-28_13-45-43.079504,"79.42,90.52"
2024-05-28_13-45-43.110679,"67.77,77.12"
2024-05-28_13-45-43.143501,"90.33,66.67"
2024-05-28_13-45-43.176110,"59.73,34.55"
2024-05-28_13-45-43.204845,"74.07,53.47"
2024-05-28_13-45-43.238750,"51.09,64.21"
2024-05-28_13-45-43.275048,"53.39,71.15"
2024-05-28_13-45-43.303188,"63.04,65.67"
2024-05-28_13-45-43.335939,"62.09,71.07"
2024-05-28_13-45-43.368633,"58.65,79.62"
2024-05-28_13-45-43.401360,"50.61,76.80"
2024-05-28_13-45-43.430231,"93.60,71.03"
2024-05-28_13-45-43.462980,"71.37,69.50"
2024-05-28_13-45-43.495731,"89.38,61.21"
2024-05-28_13-45-43.528407,"81.02,41.29"
2024-05-28_13-45-43.561191,"60.97,62.93"
2024-05-28_13-45-43.594026,"65.93,73.08"
2024-05-28_13-45-43.626854,"59.68,64.70"
2024-05-28_13-45-43.655449,"60.16,76.31"
2024-05-28_13-45-43.688184,"51.54,72.00"
2024-05-28_13-45-43.721012,"59.32,68.39"
2024-05-28_13-45-43.753728,"58.44,81.97"
2024-05-28_13-45-43.786528,"76.39,66.43"
2024-05-28_13-45-43.819159,"67.07,77.72"
2024-05-28_13-45-43.851874,"84.98,42.47"
2024-05-28_13-45-43.880637,"74.63,46.27"
2024-05-28_13-45-43.913441,"66.96,57.90"
2024-05-28_13-45-43.946265,"55.50,74.45"
2024-05-28_13-45-43.979263,"58.16,66.66"
2024-05-28_13-45-44.011742,"53.82,72.11"
2024-05-28_13-45-44.045283,"68.55,67.63"
2024-05-28_13-45-44.077884,"49.18,72.14"
2024-05-28_13-45-44.105923,"93.31,90.68"
2024-05-28_13-45-44.143038,"65.44,75.88"
2024-05-28_13-45-44.172790,"80.52,60.56"
2024-05-28_13-45-44.204345,"100.36,46.62"
2024-05-28_13-45-44.236994,"66.47,57.50"
2024-05-28_13-45-44.269816,"68.45,60.10"
2024-05-28_13-45-44.302424,"52.52,64.19"
2024-05-28_13-45-44.333493,"51.54,70.02"
2024-05-28_13-45-44.363982,"62.10,65.60"
2024-05-28_13-45-44.396758,"71.20,79.70"
2024-05-28_13-45-44.429624,"50.32,74.96"
2024-05-28_13-45-44.462357,"87.90,72.51"
2024-05-28_13-45-44.495055,"72.65,76.37"
2024-05-28_13-45-44.527926,"82.87,66.58"
2024-05-28_13-45-44.556461,"85.11,40.85"
2024-05-28_13-45-44.589260,"75.74,63.71"
2024-05-28_13-45-44.623131,"62.09,48.44"
2024-05-28_13-45-44.654797,"44.60,69.80"
2024-05-28_13-45-44.687548,"60.81,76.55"
2024-05-28_13-45-44.720333,"58.53,67.84"
2024-05-28_13-45-44.753008,"58.58,72.72"
2024-05-28_13-45-44.781715,"55.65,69.35"
2024-05-28_13-45-44.814506,"63.16,85.96"
2024-05-28_13-45-44.847299,"76.37,76.07"
2024-05-28_13-45-44.880010,"78.88,45.13"
2024-05-28_13-45-44.912830,"89.80,38.27"
2024-05-28_13-45-44.945546,"81.93,63.38"
2024-05-28_13-45-44.978368,"56.04,62.22"
2024-05-28_13-45-45.007049,"52.59,71.51"
2024-05-28_13-45-45.039777,"59.19,65.96"
2024-05-28_13-45-45.073591,"54.72,71.45"
2024-05-28_13-45-45.105295,"71.25,73.45"
2024-05-28_13-45-45.138064,"62.33,72.71"
2024-05-28_13-45-45.170881,"91.35,74.48"
2024-05-28_13-45-45.203525,"71.53,68.32"
2024-05-28_13-45-45.232264,"90.47,58.11"
2024-05-28_13-45-45.272225,"79.75,54.49"
2024-05-28_13-45-45.298588,"75.48,53.02"
2024-05-28_13-45-45.330567,"52.02,72.59"
2024-05-28_13-45-45.363341,"60.49,65.04"
2024-05-28_13-45-45.401822,"49.34,70.44"
2024-05-28_13-45-45.428843,"74.02,77.58"
2024-05-28_13-45-45.457586,"56.07,70.03"
2024-05-28_13-45-45.490382,"52.60,73.52"
2024-05-28_13-45-45.523424,"93.25,77.95"
2024-05-28_13-45-45.555843,"76.97,77.59"
2024-05-28_13-45-45.588697,"84.52,41.30"
2024-05-28_13-45-45.621411,"79.86,43.02"
2024-05-28_13-45-45.659988,"83.93,61.84"
2024-05-28_13-45-45.704184,"55.19,64.29"
2024-05-28_13-45-45.716253,"58.41,76.36"
2024-05-28_13-45-45.748354,"53.99,71.22"
2024-05-28_13-45-45.782024,"67.63,66.42"
2024-05-28_13-45-45.813866,"58.09,73.03"
2024-05-28_13-45-45.846692,"68.79,75.46"
2024-05-28_13-45-45.879529,"77.11,77.09"
2024-05-28_13-45-45.912102,"77.24,76.70"
2024-05-28_13-45-45.940870,"93.96,48.00"
2024-05-28_13-45-45.973926,"60.05,33.30"
2024-05-28_13-45-46.006412,"65.09,62.16"
2024-05-28_13-45-46.039163,"52.83,65.91"
2024-05-28_13-45-46.072563,"53.05,70.06"
2024-05-28_13-45-46.104664,"61.21,66.41"
2024-05-28_13-45-46.137290,"85.42,75.85"
2024-05-28_13-45-46.166127,"52.14,80.71"
2024-05-28_13-45-46.199024,"88.76,73.59"
2024-05-28_13-45-46.231652,"73.15,77.79"
2024-05-28_13-45-46.264453,"80.08,49.21"
2024-05-28_13-45-46.297215,"98.26,40.37"
2024-05-28_13-45-46.329906,"76.92,61.29"
2024-05-28_13-45-46.362628,"67.46,45.57"
2024-05-28_13-45-46.391413,"51.79,70.75"
2024-05-28_13-45-46.424097,"60.43,65.22"
2024-05-28_13-45-46.457002,"56.68,77.41"
2024-05-28_13-45-46.489711,"61.54,72.48"
2024-05-28_13-45-46.522453,"54.29,69.88"
2024-05-28_13-45-46.555220,"79.37,76.37"
2024-05-28_13-45-46.588580,"78.72,69.76"
2024-05-28_13-45-46.616700,"79.55,77.09"
2024-05-28_13-45-46.649426,"89.59,40.73"
2024-05-28_13-45-46.682188,"70.79,61.68"
2024-05-28_13-45-46.715014,"62.30,55.64"
2024-05-28_13-45-46.747752,"58.38,75.59"
2024-05-28_13-45-46.780458,"58.94,66.91"
2024-05-28_13-45-46.813150,"53.82,71.60"
2024-05-28_13-45-46.841948,"72.59,68.47"
2024-05-28_13-45-46.874650,"52.04,83.12"
2024-05-28_13-45-46.907476,"89.50,80.41"
2024-05-28_13-45-46.940205,"64.92,66.42"
2024-05-28_13-45-46.973351,"84.35,38.21"
2024-05-28_13-45-47.005766,"88.93,50.49"
2024-05-28_13-45-47.038408,"75.04,58.32"
2024-05-28_13-45-47.067176,"50.19,72.54"
2024-05-28_13-45-47.099983,"61.91,65.54"
2024-05-28_13-45-47.132756,"66.13,76.19"
2024-05-28_13-45-47.165553,"71.20,68.53"
2024-05-28_13-45-47.198269,"55.54,80.30"
2024-05-28_13-45-47.231049,"68.66,80.07"
2024-05-28_13-45-47.263771,"83.01,66.04"
2024-05-28_13-45-47.292526,"77.81,58.51"
2024-05-28_13-45-47.325246,"94.74,47.73"
2024-05-28_13-45-47.362112,"51.57,38.16"
2024-05-28_13-45-47.390898,"64.30,62.09"
2024-05-28_13-45-47.423494,"57.28,64.91"
2024-05-28_13-45-47.456315,"46.85,70.05"
2024-05-28_13-45-47.488943,"62.48,76.51"
2024-05-28_13-45-47.517745,"72.67,68.92"
2024-05-28_13-45-47.550635,"51.78,75.27"
2024-05-28_13-45-47.583293,"91.17,70.23"
2024-05-28_13-45-47.616103,"71.81,79.75"
2024-05-28_13-45-47.648857,"80.27,61.22"
2024-05-28_13-45-47.681522,"75.94,43.57"
2024-05-28_13-45-47.714269,"72.93,52.45"
2024-05-28_13-45-47.743061,"63.83,66.13"
2024-05-28_13-45-47.775751,"55.59,76.12"
2024-05-28_13-45-47.808564,"52.44,71.49"
2024-05-28_13-45-47.841328,"58.60,65.94"
2024-05-28_13-45-47.874455,"65.05,74.21"
2024-05-28_13-45-47.906883,"56.39,70.55"
2024-05-28_13-45-47.939544,"81.49,83.46"
2024-05-28_13-45-47.968297,"73.07,76.61"
2024-05-28_13-45-48.001057,"83.99,49.20"
2024-05-28_13-45-48.033818,"84.04,34.44"
2024-05-28_13-45-48.067072,"66.87,68.73"
2024-05-28_13-45-48.099331,"52.60,63.67"
2024-05-28_13-45-48.132132,"51.16,74.34"
2024-05-28_13-45-48.165055,"62.53,66.60"
2024-05-28_13-45-48.193553,"64.98,71.14"
2024-05-28_13-45-48.226555,"61.34,78.37"
2024-05-28_13-45-48.259168,"51.06,81.16"
2024-05-28_13-45-48.291889,"96.83,68.19"
2024-05-28_13-45-48.324616,"70.19,70.16"
2024-05-28_13-45-48.357367,"89.83,61.76"
2024-05-28_13-45-48.390074,"67.26,41.68"
2024-05-28_13-45-48.418800,"60.82,51.51"
2024-05-28_13-45-48.451599,"62.36,58.60"
2024-05-28_13-45-48.484355,"60.36,65.63"
2024-05-28_13-45-48.517091,"57.57,75.78"
2024-05-28_13-45-48.550003,"68.58,72.10"
2024-05-28_13-45-48.582638,"60.77,69.23"
2024-05-28_13-45-48.615342,"60.34,72.99"
2024-05-28_13-45-48.647965,"89.31,64.39"
2024-05-28_13-45-48.676828,"72.63,77.99"
2024-05-28_13-45-48.709827,"85.74,41.16"
2024-05-28_13-45-48.742493,"74.54,45.57"
2024-05-28_13-45-48.779074,"66.63,47.49"
2024-05-28_13-45-48.808111,"55.43,75.06"
2024-05-28_13-45-48.840746,"55.49,65.83"
2024-05-28_13-45-48.873460,"55.84,71.27"
2024-05-28_13-45-48.902100,"81.10,67.99"
2024-05-28_13-45-48.935321,"49.38,74.43"
2024-05-28_13-45-48.967724,"68.00,83.80"
2024-05-28_13-45-49.000441,"76.31,74.66"
2024-05-28_13-45-49.033167,"78.21,39.57"
2024-05-28_13-45-49.065826,"101.55,46.96"
2024-05-28_13-45-49.098619,"65.42,57.16"
2024-05-28_13-45-49.127362,"68.51,60.89"
2024-05-28_13-45-49.160226,"60.05,64.93"
2024-05-28_13-45-49.193119,"47.23,74.16"
2024-05-28_13-45-49.225824,"60.87,67.60"
2024-05-28_13-45-49.258609,"70.08,78.48"
2024-05-28_13-45-49.291323,"50.03,74.39"
2024-05-28_13-45-49.323810,"75.14,71.58"
2024-05-28_13-45-49.352656,"71.41,74.98"
2024-05-28_13-45-49.385393,"83.86,67.09"
2024-05-28_13-45-49.422230,"84.73,39.44"
2024-05-28_13-45-49.450951,"74.28,52.91"
2024-05-28_13-45-49.483698,"65.86,66.13"
2024-05-28_13-45-49.516424,"45.19,69.39"
2024-05-28_13-45-49.549086,"61.60,75.93"
2024-05-28_13-45-49.577917,"58.21,67.55"
2024-05-28_13-45-49.610710,"61.29,73.62"
2024-05-28_13-45-49.643452,"57.14,71.17"
2024-05-28_13-45-49.676264,"63.30,84.98"
2024-05-28_13-45-49.709037,"76.27,60.69"
2024-05-28_13-45-49.741685,"81.83,46.00"
2024-05-28_13-45-49.774367,"91.69,38.13"
2024-05-28_13-45-49.803217,"68.01,67.30"
2024-05-28_13-45-49.835987,"60.02,62.89"
2024-05-28_13-45-49.868902,"51.09,71.28"
2024-05-28_13-45-49.901519,"58.90,65.28"
2024-05-28_13-45-49.934256,"55.96,73.55"
2024-05-28_13-45-49.966977,"64.61,69.37"
2024-05-28_13-45-49.999642,"52.41,82.40"
2024-05-28_13-45-50.028408,"78.27,79.40"
2024-05-28_13-45-50.061205,"73.35,67.51"
2024-05-28_13-45-50.094007,"88.12,35.20"
2024-05-28_13-45-50.129063,"79.86,54.03"
2024-05-28_13-45-50.160087,"59.63,70.97"
2024-05-28_13-45-50.192276,"53.50,74.27"
2024-05-28_13-45-50.224983,"61.29,66.59"
2024-05-28_13-45-50.253736,"49.88,70.28"
2024-05-28_13-45-50.286506,"71.76,76.70"
2024-05-28_13-45-50.319298,"55.34,72.22"
2024-05-28_13-45-50.352100,"69.46,82.96"
2024-05-28_13-45-50.384791,"86.33,64.98"
2024-05-28_13-45-50.417494,"81.02,77.06"
2024-05-28_13-45-50.450178,"90.43,41.40"
2024-05-28_13-45-50.478972,"68.32,41.98"
2024-05-28_13-45-50.511776,"77.10,60.32"
2024-05-28_13-45-50.544576,"57.43,65.36"
2024-05-28_13-45-50.577470,"56.93,75.14"
2024-05-28_13-45-50.610128,"54.37,71.29"
2024-05-28_13-45-50.642809,"64.82,68.49"
2024-05-28_13-45-50.675600,"54.26,74.78"
2024-05-28_13-45-50.704394,"86.87,87.12"
2024-05-28_13-45-50.737674,"62.62,81.25"
2024-05-28_13-45-50.770724,"79.37,61.40"
2024-05-28_13-45-50.803485,"100.41,46.58"
2024-05-28_13-45-50.835275,"65.25,54.82"
2024-05-28_13-45-50.868087,"54.37,76.50"
2024-05-28_13-45-50.900756,"54.50,65.31"
2024-05-28_13-45-50.929570,"54.82,70.93"
2024-05-28_13-45-50.962307,"76.02,67.43"
2024-05-28_13-45-50.995042,"56.75,72.53"
2024-05-28_13-45-51.027872,"51.84,79.70"
2024-05-28_13-45-51.060722,"87.31,78.06"
2024-05-28_13-45-51.093529,"74.12,75.52"
2024-05-28_13-45-51.126480,"88.58,49.02"
2024-05-28_13-45-51.158714,"41.71,64.08"
2024-05-28_13-45-51.187547,"56.33,77.06"
2024-05-28_13-45-51.221390,"54.57,64.15"
2024-05-28_13-45-51.253132,"53.71,70.03"
2024-05-28_13-45-51.285889,"60.52,66.97"
2024-05-28_13-45-51.318762,"62.16,77.28"
2024-05-28_13-45-51.351466,"49.12,74.10"
2024-05-28_13-45-51.383997,"83.96,73.88"
2024-05-28_13-45-51.412824,"74.02,76.32"
2024-05-28_13-45-51.445722,"84.65,67.48"
2024-05-28_13-45-51.478335,"94.99,39.70"
2024-05-28_13-45-51.511111,"75.14,66.22"
2024-05-28_13-45-51.545550,"63.72,48.39"
2024-05-28_13-45-51.577469,"43.69,69.97"
2024-05-28_13-45-51.609418,"61.30,75.23"
2024-05-28_13-45-51.638099,"57.73,67.42"
2024-05-28_13-45-51.670869,"62.17,73.85"
2024-05-28_13-45-51.703645,"56.63,70.79"
2024-05-28_13-45-51.736325,"77.50,82.88"
2024-05-28_13-45-51.769159,"77.66,60.71"
2024-05-28_13-45-51.801870,"78.85,45.34"
2024-05-28_13-45-51.834640,"89.95,38.09"
2024-05-28_13-45-51.863353,"83.66,61.79"
2024-05-28_13-45-51.896117,"54.89,62.47"
2024-05-28_13-45-51.928899,"52.80,71.51"
2024-05-28_13-45-51.961665,"58.15,65.16"
2024-05-28_13-45-51.994437,"55.20,72.93"
2024-05-28_13-45-52.027116,"70.69,69.01"
2024-05-28_13-45-52.060740,"51.22,83.61"
2024-05-28_13-45-52.088638,"92.53,74.20"
2024-05-28_13-45-52.121385,"68.20,69.25"
2024-05-28_13-45-52.154159,"86.36,35.57"
2024-05-28_13-45-52.186951,"65.14,77.71"
2024-05-28_13-45-52.219708,"53.38,67.18"
2024-05-28_13-45-52.252442,"51.69,70.22"
2024-05-28_13-45-52.285104,"60.89,66.10"
2024-05-28_13-45-52.313982,"50.48,70.03"
2024-05-28_13-45-52.346683,"74.62,76.80"
2024-05-28_13-45-52.379522,"57.25,71.69"
2024-05-28_13-45-52.412187,"52.33,85.67"
2024-05-28_13-45-52.444978,"88.29,64.15"
2024-05-28_13-45-52.477717,"80.66,62.36"
2024-05-28_13-45-52.510437,"88.70,41.80"
2024-05-28_13-45-52.539119,"51.90,41.69"
2024-05-28_13-45-52.571921,"64.32,59.09"
2024-05-28_13-45-52.604898,"57.20,64.87"
2024-05-28_13-45-52.639217,"56.41,75.46"
2024-05-28_13-45-52.670437,"52.91,72.85"
2024-05-28_13-45-52.703087,"65.81,68.32"
2024-05-28_13-45-52.735686,"53.60,74.25"
2024-05-28_13-45-52.764535,"93.89,71.20"
2024-05-28_13-45-52.797211,"62.81,82.29"
2024-05-28_13-45-52.829927,"78.61,61.76"
2024-05-28_13-45-52.862730,"98.11,46.43"
2024-05-28_13-45-52.897315,"69.23,56.01"
2024-05-28_13-45-52.928232,"71.67,61.86"
2024-05-28_13-45-52.960960,"53.38,64.95"
2024-05-28_13-45-52.989903,"53.83,71.27"
2024-05-28_13-45-53.022794,"64.01,67.29"
2024-05-28_13-45-53.055240,"64.73,71.04"
2024-05-28_13-45-53.087998,"52.06,79.68"
2024-05-28_13-45-53.120910,"83.82,74.85"
2024-05-28_13-45-53.153452,"72.75,76.13"
2024-05-28_13-45-53.186184,"81.80,49.31"
2024-05-28_13-45-53.214980,"52.19,80.29"
2024-05-28_13-45-53.247738,"81.25,70.07"
2024-05-28_13-45-53.280442,"50.49,64.25"
2024-05-28_13-45-53.313455,"55.07,70.90"
2024-05-28_13-45-53.346020,"61.32,65.20"
2024-05-28_13-45-53.379454,"67.58,77.03"
2024-05-28_13-45-53.411540,"55.29,73.72"
2024-05-28_13-45-53.440252,"52.55,75.58"
2024-05-28_13-45-53.473064,"91.42,71.54"
2024-05-28_13-45-53.505817,"79.36,69.47"
2024-05-28_13-45-53.538532,"88.51,60.85"
2024-05-28_13-45-53.571556,"79.32,59.36"
2024-05-28_13-45-53.604114,"68.34,47.73"
2024-05-28_13-45-53.636743,"43.16,69.77"
2024-05-28_13-45-53.665481,"59.09,75.01"
2024-05-28_13-45-53.712590,"59.08,67.11"
2024-05-28_13-45-53.734176,"62.27,73.33"
2024-05-28_13-45-53.763836,"59.31,69.82"
2024-05-28_13-45-53.796602,"78.64,81.22"
2024-05-28_13-45-53.829373,"80.46,76.84"
2024-05-28_13-45-53.862027,"71.53,64.58"
2024-05-28_13-45-53.890813,"88.04,38.99"
2024-05-28_13-45-53.924266,"68.19,45.89"
2024-05-28_13-45-53.956345,"50.17,61.66"
2024-05-28_13-45-53.989074,"52.04,71.64"
2024-05-28_13-45-54.021839,"58.33,65.12"
2024-05-28_13-45-54.054648,"55.18,73.06"
2024-05-28_13-45-54.087263,"76.42,68.06"
2024-05-28_13-45-54.119985,"49.01,89.68"
2024-05-28_13-45-54.148839,"85.94,69.55"
2024-05-28_13-45-54.181654,"65.93,69.48"
2024-05-28_13-45-54.214403,"68.98,73.10"
2024-05-28_13-45-54.247128,"64.07,50.83"
2024-05-28_13-45-54.279964,"58.65,53.51"
2024-05-28_13-45-54.312664,"63.43,74.32"
2024-05-28_13-45-54.345360,"58.35,65.64"
2024-05-28_13-45-54.374056,"48.29,69.89"
2024-05-28_13-45-54.406845,"76.04,76.45"
2024-05-28_13-45-54.439783,"63.02,71.34"
2024-05-28_13-45-54.473069,"51.72,74.86"
2024-05-28_13-45-54.505118,"86.60,75.84"
2024-05-28_13-45-54.538087,"75.25,77.77"
2024-05-28_13-45-54.570580,"84.16,61.80"
2024-05-28_13-45-54.599354,"78.91,42.75"
2024-05-28_13-45-54.632116,"87.42,57.33"
2024-05-28_13-45-54.664918,"53.34,64.99"
2024-05-28_13-45-54.697659,"56.65,75.27"
2024-05-28_13-45-54.730432,"54.34,72.32"
2024-05-28_13-45-54.763128,"68.82,67.86"
2024-05-28_13-45-54.795819,"56.46,73.16"
2024-05-28_13-45-54.824750,"69.35,72.58"
2024-05-28_13-45-54.857488,"76.54,80.97"
2024-05-28_13-45-54.890259,"76.89,76.61"
2024-05-28_13-45-54.922885,"96.14,46.25"
2024-05-28_13-45-54.955666,"70.21,53.91"
2024-05-28_13-45-54.988359,"73.59,61.88"
2024-05-28_13-45-55.021049,"52.91,64.92"
2024-05-28_13-45-55.049880,"54.07,70.44"
2024-05-28_13-45-55.082617,"63.48,66.97"
2024-05-28_13-45-55.115435,"68.80,70.96"
2024-05-28_13-45-55.148283,"52.79,80.68"
2024-05-28_13-45-55.181402,"84.90,73.35"
2024-05-28_13-45-55.213634,"67.64,75.91"
2024-05-28_13-45-55.246343,"65.29,70.71"
2024-05-28_13-45-55.275255,"68.03,41.74"
2024-05-28_13-45-55.307932,"82.61,62.24"
2024-05-28_13-45-55.340792,"47.58,64.42"
2024-05-28_13-45-55.373404,"54.00,70.95"
2024-05-28_13-45-55.406200,"61.63,64.99"
2024-05-28_13-45-55.438953,"70.46,77.13"
2024-05-28_13-45-55.471621,"59.41,74.09"
2024-05-28_13-45-55.500472,"52.58,77.34"
2024-05-28_13-45-55.533124,"94.08,68.05"
2024-05-28_13-45-55.565934,"78.50,70.97"
2024-05-28_13-45-55.598682,"84.21,61.62"
2024-05-28_13-45-55.631476,"81.66,41.26"
2024-05-28_13-45-55.664166,"65.88,46.78"
2024-05-28_13-45-55.696902,"41.67,70.86"
2024-05-28_13-45-55.725610,"59.51,74.87"
2024-05-28_13-45-55.758448,"60.93,67.94"
2024-05-28_13-45-55.791313,"65.11,71.96"
2024-05-28_13-45-55.824563,"60.04,69.60"
2024-05-28_13-45-55.856766,"78.21,82.55"
2024-05-28_13-45-55.889531,"79.03,76.17"
2024-05-28_13-45-55.922469,"75.01,46.28"
2024-05-28_13-45-55.950967,"90.17,39.19"
2024-05-28_13-45-55.983735,"66.53,69.00"
2024-05-28_13-45-56.016482,"49.79,61.88"
2024-05-28_13-45-56.049247,"51.94,71.45"
2024-05-28_13-45-56.082018,"59.00,65.66"
2024-05-28_13-45-56.114741,"55.30,71.93"
2024-05-28_13-45-56.147434,"77.18,67.45"
2024-05-28_13-45-56.176672,"48.23,80.10"
2024-05-28_13-45-56.209174,"68.76,78.85"
2024-05-28_13-45-56.265177,"81.06,72.65"
2024-05-28_13-45-56.276548,"69.78,73.66"
2024-05-28_13-45-56.307557,"78.10,51.29"
2024-05-28_13-45-56.340130,"59.53,64.20"
2024-05-28_13-45-56.372792,"59.23,59.30"
2024-05-28_13-45-56.401664,"58.80,65.53"
2024-05-28_13-45-56.434221,"46.59,69.23"
2024-05-28_13-45-56.467034,"76.11,76.62"
2024-05-28_13-45-56.499801,"56.73,71.93"
2024-05-28_13-45-56.532497,"52.03,73.60"
2024-05-28_13-45-56.565314,"89.59,64.35"
2024-05-28_13-45-56.598016,"78.47,62.53"
2024-05-28_13-45-56.626888,"85.85,41.03"
2024-05-28_13-45-56.659544,"67.07,42.21"
2024-05-28_13-45-56.692291,"75.36,48.21"
2024-05-28_13-45-56.725027,"55.02,64.77"
2024-05-28_13-45-56.757807,"57.04,75.26"
2024-05-28_13-45-56.790620,"53.84,72.90"
2024-05-28_13-45-56.823244,"65.80,67.92"
2024-05-28_13-45-56.852025,"55.56,73.30"
2024-05-28_13-45-56.884750,"68.99,72.56"
2024-05-28_13-45-56.917622,"61.88,81.52"
2024-05-28_13-45-56.950342,"80.52,61.98"
2024-05-28_13-45-56.983074,"89.80,45.98"
2024-05-28_13-45-57.015855,"67.22,47.96"
2024-05-28_13-45-57.048573,"63.19,77.23"
2024-05-28_13-45-57.077236,"54.41,65.65"
2024-05-28_13-45-57.110402,"53.12,71.41"
2024-05-28_13-45-57.142951,"77.78,67.48"
2024-05-28_13-45-57.175581,"56.80,71.53"
2024-05-28_13-45-57.208369,"51.69,80.73"
2024-05-28_13-45-57.241120,"90.81,76.83"
2024-05-28_13-45-57.273786,"66.75,73.24"
2024-05-28_13-45-57.302628,"68.26,69.35"
2024-05-28_13-45-57.335333,"46.10,62.69"
2024-05-28_13-45-57.368115,"63.06,59.45"
2024-05-28_13-45-57.400858,"54.93,64.66"
2024-05-28_13-45-57.433605,"54.04,70.96"
2024-05-28_13-45-57.466388,"62.97,65.31"
2024-05-28_13-45-57.499076,"74.04,78.76"
2024-05-28_13-45-57.531838,"50.07,74.99"
2024-05-28_13-45-57.560667,"91.05,85.94"
2024-05-28_13-45-57.593381,"73.89,76.17"
2024-05-28_13-45-57.626095,"84.40,67.20"
2024-05-28_13-45-57.658893,"85.27,40.28"
2024-05-28_13-45-57.691701,"74.51,52.21"
2024-05-28_13-45-57.725395,"63.02,49.08"
2024-05-28_13-45-57.757065,"45.46,69.19"
2024-05-28_13-45-57.785855,"61.05,75.96"
2024-05-28_13-45-57.818664,"57.63,68.34"
2024-05-28_13-45-57.851449,"58.35,72.58"
2024-05-28_13-45-57.884192,"56.56,81.77"
2024-05-28_13-45-57.916924,"93.38,75.65"
2024-05-28_13-45-57.949554,"76.74,75.76"
2024-05-28_13-45-57.982247,"83.48,44.80"
2024-05-28_13-45-58.011154,"80.86,38.38"
2024-05-28_13-45-58.044050,"65.15,46.19"
2024-05-28_13-45-58.076667,"51.60,75.87"
2024-05-28_13-45-58.109540,"52.78,71.05"
2024-05-28_13-45-58.142356,"61.02,66.42"
2024-05-28_13-45-58.175156,"68.16,71.76"
2024-05-28_13-45-58.207726,"58.11,69.23"
2024-05-28_13-45-58.236437,"86.98,81.62"
2024-05-28_13-45-58.269171,"72.77,78.41"
2024-05-28_13-45-58.301936,"69.62,68.91"
2024-05-28_13-45-58.334726,"61.27,60.28"
2024-05-28_13-45-58.367472,"65.87,45.84"
2024-05-28_13-45-58.400175,"53.54,64.03"
2024-05-28_13-45-58.432860,"54.82,71.23"
2024-05-28_13-45-58.461659,"61.12,65.53"
2024-05-28_13-45-58.494441,"65.69,69.93"
2024-05-28_13-45-58.527223,"62.29,78.20"
2024-05-28_13-45-58.559984,"49.69,79.25"
2024-05-28_13-45-58.592750,"95.87,68.44"
2024-05-28_13-45-58.625441,"73.97,70.11"
2024-05-28_13-45-58.658104,"92.50,40.57"
2024-05-28_13-45-58.688909,"80.51,61.40"
2024-05-28_13-45-58.719781,"64.00,45.07"
2024-05-28_13-45-58.752466,"51.21,71.23"
2024-05-28_13-45-58.785289,"60.01,64.69"
2024-05-28_13-45-58.818018,"57.64,76.23"
2024-05-28_13-45-58.850697,"61.65,74.26"
2024-05-28_13-45-58.883366,"53.24,70.28"
2024-05-28_13-45-58.912232,"79.18,76.16"
2024-05-28_13-45-58.945167,"78.33,72.14"
2024-05-28_13-45-58.977833,"76.54,62.00"
2024-05-28_13-45-59.010495,"91.99,41.87"
2024-05-28_13-45-59.043295,"70.03,61.27"
2024-05-28_13-45-59.076592,"48.75,56.20"
2024-05-28_13-45-59.108653,"56.84,74.77"
2024-05-28_13-45-59.137484,"56.64,66.55"
2024-05-28_13-45-59.170237,"52.91,73.55"
2024-05-28_13-45-59.203006,"64.51,69.91"
2024-05-28_13-45-59.235723,"66.11,95.76"
2024-05-28_13-45-59.268588,"83.16,77.70"
2024-05-28_13-45-59.301448,"74.21,66.05"
2024-05-28_13-45-59.334012,"61.64,60.75"
2024-05-28_13-45-59.362738,"65.48,45.40"
2024-05-28_13-45-59.395590,"51.87,77.95"
2024-05-28_13-45-59.428474,"51.59,71.36"
2024-05-28_13-45-59.461066,"57.49,66.24"
2024-05-28_13-45-59.493781,"55.27,71.68"
2024-05-28_13-45-59.526604,"74.96,67.77"
2024-05-28_13-45-59.559257,"50.00,89.29"
2024-05-28_13-45-59.588045,"96.65,69.64"
2024-05-28_13-45-59.620956,"66.30,69.81"
2024-05-28_13-45-59.653560,"86.30,57.52"
2024-05-28_13-45-59.686304,"78.82,57.50"
2024-05-28_13-45-59.719074,"61.82,57.75"
2024-05-28_13-45-59.751869,"51.08,72.11"
2024-05-28_13-45-59.784592,"61.97,66.21"
2024-05-28_13-45-59.817202,"48.54,69.69"
2024-05-28_13-45-59.846228,"68.67,78.48"
2024-05-28_13-45-59.878820,"53.24,71.73"
2024-05-28_13-45-59.911609,"68.61,76.87"
2024-05-28_13-45-59.944384,"84.55,67.73"
2024-05-28_13-45-59.977287,"86.22,77.07"
2024-05-28_13-46-00.009801,"89.09,41.03"
2024-05-28_13-46-00.042505,"66.20,60.26"
2024-05-28_13-46-00.071291,"67.10,58.90"
2024-05-28_13-46-00.104092,"58.89,65.13"
2024-05-28_13-46-00.136897,"56.79,75.31"
2024-05-28_13-46-00.169815,"53.50,73.13"
2024-05-28_13-46-00.202417,"71.50,69.10"
2024-05-28_13-46-00.235027,"55.89,76.90"
2024-05-28_13-46-00.267770,"93.10,70.25"
2024-05-28_13-46-00.296651,"69.81,75.56"
2024-05-28_13-46-00.329411,"63.28,75.33"
2024-05-28_13-46-00.362111,"67.98,50.49"
2024-05-28_13-46-00.394894,"80.34,55.68"
2024-05-28_13-46-00.427655,"55.24,74.43"
2024-05-28_13-46-00.460354,"56.20,67.34"
2024-05-28_13-46-00.493053,"55.53,71.43"
2024-05-28_13-46-00.521981,"69.15,67.45"
2024-05-28_13-46-00.554628,"51.23,72.06"
2024-05-28_13-46-00.587363,"68.28,84.04"
2024-05-28_13-46-00.620163,"76.13,72.07"
2024-05-28_13-46-00.652924,"77.93,60.37"
2024-05-28_13-46-00.685644,"82.69,47.43"
2024-05-28_13-46-00.718289,"62.01,61.73"
2024-05-28_13-46-00.747118,"61.89,59.96"
2024-05-28_13-46-00.779869,"56.96,65.57"
2024-05-28_13-46-00.812661,"52.51,70.70"
2024-05-28_13-46-00.845466,"59.78,66.00"
2024-05-28_13-46-00.878172,"60.07,79.35"
2024-05-28_13-46-00.913305,"51.68,85.39"
2024-05-28_13-46-00.944032,"85.55,64.04"
2024-05-28_13-46-00.972688,"79.04,74.01"
2024-05-28_13-46-01.005133,"94.22,47.99"
2024-05-28_13-46-01.037899,"50.05,65.12"
2024-05-28_13-46-01.070678,"64.34,60.16"
2024-05-28_13-46-01.103508,"61.10,65.59"
2024-05-28_13-46-01.136153,"47.33,69.36"
2024-05-28_13-46-01.168866,"61.43,76.01"
2024-05-28_13-46-01.197621,"68.26,69.25"
2024-05-28_13-46-01.230368,"50.56,75.03"
2024-05-28_13-46-01.263171,"87.23,75.32"
2024-05-28_13-46-01.296001,"75.27,79.85"
2024-05-28_13-46-01.328712,"62.42,60.52"
2024-05-28_13-46-01.361543,"65.37,44.59"
2024-05-28_13-46-01.394256,"84.19,61.23"
2024-05-28_13-46-01.422945,"52.88,64.37"
2024-05-28_13-46-01.455687,"55.60,75.03"
2024-05-28_13-46-01.488520,"53.58,71.24"
2024-05-28_13-46-01.521259,"65.16,68.97"
2024-05-28_13-46-01.554005,"54.17,73.75"
2024-05-28_13-46-01.586707,"81.84,73.58"
2024-05-28_13-46-01.619474,"60.90,80.89"
2024-05-28_13-46-01.648221,"78.18,61.19"
2024-05-28_13-46-01.681021,"99.18,46.63"
2024-05-28_13-46-01.713726,"67.66,41.85"
2024-05-28_13-46-01.746484,"65.20,76.69"
2024-05-28_13-46-01.779205,"54.75,65.95"
2024-05-28_13-46-01.812148,"53.95,71.69"
2024-05-28_13-46-01.844740,"76.80,67.20"
2024-05-28_13-46-01.873684,"55.93,71.88"
2024-05-28_13-46-01.906355,"52.20,89.10"
2024-05-28_13-46-01.939010,"83.03,63.88"
2024-05-28_13-46-01.972986,"75.15,74.97"
2024-05-28_13-46-02.004474,"94.36,47.11"
2024-05-28_13-46-02.037198,"53.98,38.20"
2024-05-28_13-46-02.069927,"65.85,73.31"
2024-05-28_13-46-02.098742,"52.99,63.71"
2024-05-28_13-46-02.133201,"52.61,70.81"
2024-05-28_13-46-02.164301,"62.80,66.40"
2024-05-28_13-46-02.197061,"67.83,77.90"
2024-05-28_13-46-02.229766,"51.03,75.67"
2024-05-28_13-46-02.262583,"84.66,74.20"
2024-05-28_13-46-02.295380,"63.21,72.20"
2024-05-28_13-46-02.323952,"70.98,69.89"
2024-05-28_13-46-02.356817,"65.65,42.63"
2024-05-28_13-46-02.389545,"84.92,60.31"
2024-05-28_13-46-02.422289,"53.33,65.07"
2024-05-28_13-46-02.455098,"47.30,69.96"
2024-05-28_13-46-02.487849,"60.03,75.27"
2024-05-28_13-46-02.520532,"66.86,69.42"
2024-05-28_13-46-02.549253,"56.75,73.75"
2024-05-28_13-46-02.581989,"57.61,74.33"
2024-05-28_13-46-02.614833,"89.23,77.14"
2024-05-28_13-46-02.647629,"78.93,61.16"
2024-05-28_13-46-02.680641,"90.01,44.16"
2024-05-28_13-46-02.713099,"77.77,56.91"
2024-05-28_13-46-02.745911,"72.10,47.82"
2024-05-28_13-46-02.778494,"54.08,75.40"
2024-05-28_13-46-02.807314,"52.52,71.72"
2024-05-28_13-46-02.840096,"60.31,66.97"
2024-05-28_13-46-02.872991,"62.79,72.64"
2024-05-28_13-46-02.905596,"52.57,80.23"
2024-05-28_13-46-02.940030,"79.34,78.37"
2024-05-28_13-46-02.971210,"75.62,76.22"
2024-05-28_13-46-03.003760,"90.54,47.13"
2024-05-28_13-46-03.032550,"59.79,33.74"
2024-05-28_13-46-03.065321,"64.69,61.68"
2024-05-28_13-46-03.098125,"51.84,64.75"
2024-05-28_13-46-03.130814,"53.42,70.93"
2024-05-28_13-46-03.163607,"64.85,67.28"
2024-05-28_13-46-03.196382,"64.55,71.23"
2024-05-28_13-46-03.228979,"52.28,79.85"
2024-05-28_13-46-03.257814,"82.87,71.32"
2024-05-28_13-46-03.290606,"72.98,75.57"
2024-05-28_13-46-03.323952,"85.72,66.59"
2024-05-28_13-46-03.356138,"53.30,79.01"
2024-05-28_13-46-03.388911,"83.17,59.20"
2024-05-28_13-46-03.421575,"52.70,64.48"
2024-05-28_13-46-03.454319,"55.79,70.62"
2024-05-28_13-46-03.483070,"61.65,65.05"
2024-05-28_13-46-03.515864,"63.49,77.28"
2024-05-28_13-46-03.548659,"52.21,73.81"
2024-05-28_13-46-03.581349,"54.51,73.51"
2024-05-28_13-46-03.614155,"88.35,77.57"
2024-05-28_13-46-03.646871,"82.13,68.43"
2024-05-28_13-46-03.679591,"92.52,40.09"
2024-05-28_13-46-03.708354,"75.94,61.82"
2024-05-28_13-46-03.741127,"63.59,48.86"
2024-05-28_13-46-03.773863,"44.71,69.51"
2024-05-28_13-46-03.806673,"59.21,75.35"
2024-05-28_13-46-03.839454,"72.53,67.59"
2024-05-28_13-46-03.872115,"60.26,73.68"
2024-05-28_13-46-03.904785,"56.81,70.24"
2024-05-28_13-46-03.933630,"77.01,86.57"
2024-05-28_13-46-03.966381,"76.77,60.74"
2024-05-28_13-46-03.999224,"83.89,44.68"
2024-05-28_13-46-04.031963,"80.81,38.46"
2024-05-28_13-46-04.064737,"64.56,44.96"
2024-05-28_13-46-04.097444,"48.95,75.98"
2024-05-28_13-46-04.130098,"53.15,71.24"
2024-05-28_13-46-04.158921,"59.57,65.59"
2024-05-28_13-46-04.191758,"66.19,74.14"
2024-05-28_13-46-04.224428,"59.65,69.87"
2024-05-28_13-46-04.257222,"85.27,81.59"
2024-05-28_13-46-04.290184,"73.09,77.06"
2024-05-28_13-46-04.324114,"79.15,48.32"
2024-05-28_13-46-04.355422,"80.05,56.14"
2024-05-28_13-46-04.384184,"45.21,77.19"
2024-05-28_13-46-04.416965,"55.37,66.33"
2024-05-28_13-46-04.449822,"52.89,69.63"
2024-05-28_13-46-04.482486,"63.19,66.89"
2024-05-28_13-46-04.515270,"61.24,71.09"
2024-05-28_13-46-04.547968,"55.38,79.18"
2024-05-28_13-46-04.580670,"82.87,75.62"
2024-05-28_13-46-04.609440,"76.84,77.53"
2024-05-28_13-46-04.642190,"76.25,67.51"
2024-05-28_13-46-04.674948,"98.88,39.28"
2024-05-28_13-46-04.707753,"74.82,52.55"
2024-05-28_13-46-04.740498,"44.96,64.39"
2024-05-28_13-46-04.773347,"52.76,70.66"
2024-05-28_13-46-04.805969,"62.57,65.68"
2024-05-28_13-46-04.834767,"69.86,76.82"
2024-05-28_13-46-04.867506,"58.60,74.55"
2024-05-28_13-46-04.900274,"52.89,79.27"
2024-05-28_13-46-04.932983,"94.59,67.77"
2024-05-28_13-46-04.965798,"77.43,69.38"
2024-05-28_13-46-04.998615,"89.98,41.87"
2024-05-28_13-46-05.031147,"66.97,64.37"
2024-05-28_13-46-05.059982,"68.02,45.82"
2024-05-28_13-46-05.092913,"44.21,70.17"
2024-05-28_13-46-05.125521,"60.51,75.61"
2024-05-28_13-46-05.158269,"57.97,67.12"
2024-05-28_13-46-05.191115,"62.04,74.40"
2024-05-28_13-46-05.223758,"57.66,71.32"
2024-05-28_13-46-05.256545,"77.73,84.58"
2024-05-28_13-46-05.285269,"77.86,76.07"
2024-05-28_13-46-05.318068,"83.65,46.52"
2024-05-28_13-46-05.350811,"80.00,38.37"
2024-05-28_13-46-05.383598,"50.86,67.40"
2024-05-28_13-46-05.416332,"55.81,77.67"
2024-05-28_13-46-05.449093,"52.99,70.71"
2024-05-28_13-46-05.481709,"59.73,66.82"
2024-05-28_13-46-05.514511,"71.12,72.71"
2024-05-28_13-46-05.543291,"59.12,69.08"
2024-05-28_13-46-05.576048,"86.75,82.79"
2024-05-28_13-46-05.608902,"72.86,78.33"
2024-05-28_13-46-05.641632,"79.64,66.15"
2024-05-28_13-46-05.674300,"83.91,34.59"
2024-05-28_13-46-05.707084,"74.28,63.27"
2024-05-28_13-46-05.739759,"52.44,63.52"
2024-05-28_13-46-05.768571,"53.14,70.50"
2024-05-28_13-46-05.801281,"64.87,66.74"
2024-05-28_13-46-05.834029,"71.32,70.40"
2024-05-28_13-46-05.866827,"52.66,79.27"
2024-05-28_13-46-05.899596,"87.75,72.30"
2024-05-28_13-46-05.932363,"73.54,76.68"
2024-05-28_13-46-05.965015,"82.40,49.40"
2024-05-28_13-46-05.993987,"79.44,40.25"
2024-05-28_13-46-06.026556,"71.29,65.46"
2024-05-28_13-46-06.059336,"46.47,63.61"
2024-05-28_13-46-06.092346,"52.69,70.50"
2024-05-28_13-46-06.126053,"63.15,66.01"
2024-05-28_13-46-06.157798,"65.28,76.53"
2024-05-28_13-46-06.190294,"55.13,73.89"
2024-05-28_13-46-06.219094,"53.79,76.04"
2024-05-28_13-46-06.251855,"79.84,71.33"
2024-05-28_13-46-06.284633,"79.23,68.77"
2024-05-28_13-46-06.317378,"94.68,61.80"
2024-05-28_13-46-06.350113,"78.75,58.68"
2024-05-28_13-46-06.387914,"68.27,47.39"
2024-05-28_13-46-06.420012,"47.18,74.30"
2024-05-28_13-46-06.444372,"60.20,76.05"
2024-05-28_13-46-06.477059,"58.25,66.92"
2024-05-28_13-46-06.509889,"64.97,72.12"
2024-05-28_13-46-06.542741,"57.14,71.91"
2024-05-28_13-46-06.575395,"77.62,85.17"
2024-05-28_13-46-06.608105,"77.03,76.68"
2024-05-28_13-46-06.640767,"79.05,45.05"
2024-05-28_13-46-06.669619,"89.54,38.53"
2024-05-28_13-46-06.702399,"82.38,61.43"
2024-05-28_13-46-06.735173,"52.76,62.37"
2024-05-28_13-46-06.767973,"49.78,71.06"
2024-05-28_13-46-06.800655,"61.08,65.42"
2024-05-28_13-46-06.833385,"54.63,73.61"
2024-05-28_13-46-06.866035,"66.43,69.26"
2024-05-28_13-46-06.894900,"78.99,84.83"
2024-05-28_13-46-06.927599,"75.46,78.21"
2024-05-28_13-46-06.960499,"75.19,66.22"
2024-05-28_13-46-06.993159,"92.02,35.21"
2024-05-28_13-46-07.026075,"67.57,61.91"
2024-05-28_13-46-07.058661,"54.22,64.34"
2024-05-28_13-46-07.091357,"52.68,71.16"
2024-05-28_13-46-07.120144,"62.00,65.83"
2024-05-28_13-46-07.152894,"65.75,71.81"
2024-05-28_13-46-07.185664,"62.69,78.95"
2024-05-28_13-46-07.218433,"50.32,77.98"
2024-05-28_13-46-07.251248,"94.35,70.76"
2024-05-28_13-46-07.284003,"72.33,69.14"
2024-05-28_13-46-07.316731,"93.04,60.83"
2024-05-28_13-46-07.345383,"79.67,59.65"
2024-05-28_13-46-07.378149,"62.06,45.65"
2024-05-28_13-46-07.411022,"51.25,73.51"
2024-05-28_13-46-07.443701,"60.50,68.49"
2024-05-28_13-46-07.476816,"58.58,77.47"
2024-05-28_13-46-07.510807,"60.81,72.86"
2024-05-28_13-46-07.542188,"51.86,71.67"
2024-05-28_13-46-07.570697,"80.07,77.52"
2024-05-28_13-46-07.603476,"77.88,72.62"
2024-05-28_13-46-07.636230,"80.21,61.78"
2024-05-28_13-46-07.668988,"81.07,41.96"
2024-05-28_13-46-07.701837,"67.52,67.24"
2024-05-28_13-46-07.734662,"54.51,56.20"
2024-05-28_13-46-07.767172,"59.49,75.62"
2024-05-28_13-46-07.799913,"58.59,66.77"
2024-05-28_13-46-07.828717,"65.48,73.32"
2024-05-28_13-46-07.861479,"59.21,70.76"
2024-05-28_13-46-07.895326,"77.16,83.77"
2024-05-28_13-46-07.938789,"77.66,76.12"
2024-05-28_13-46-07.960186,"83.00,45.87"
2024-05-28_13-46-07.997459,"79.85,38.12"
2024-05-28_13-46-08.025588,"69.09,64.85"
2024-05-28_13-46-08.054570,"61.42,63.05"
2024-05-28_13-46-08.086799,"52.38,71.31"
2024-05-28_13-46-08.119781,"58.78,65.38"
2024-05-28_13-46-08.152645,"71.17,73.35"
2024-05-28_13-46-08.185188,"60.93,70.13"
2024-05-28_13-46-08.217760,"85.36,82.47"
2024-05-28_13-46-08.250503,"72.59,77.52"
2024-05-28_13-46-08.279267,"78.98,49.11"
2024-05-28_13-46-08.312251,"93.98,34.72"
2024-05-28_13-46-08.344836,"67.95,45.45"
2024-05-28_13-46-08.377622,"54.43,64.14"
2024-05-28_13-46-08.410376,"51.63,75.22"
2024-05-28_13-46-08.443252,"62.18,65.60"
2024-05-28_13-46-08.475755,"66.14,71.36"
2024-05-28_13-46-08.504647,"62.26,78.21"
2024-05-28_13-46-08.537350,"51.32,75.55"
2024-05-28_13-46-08.570079,"93.10,71.63"
2024-05-28_13-46-08.602828,"73.14,69.15"
2024-05-28_13-46-08.635664,"94.81,41.11"
2024-05-28_13-46-08.668334,"79.08,59.59"
2024-05-28_13-46-08.701088,"67.98,45.23"
2024-05-28_13-46-08.729856,"52.25,71.18"
2024-05-28_13-46-08.763632,"62.16,65.88"
2024-05-28_13-46-08.795782,"56.43,76.22"
2024-05-28_13-46-08.829478,"59.31,72.88"
2024-05-28_13-46-08.861604,"53.05,82.15"
2024-05-28_13-46-08.893694,"90.13,78.17"
2024-05-28_13-46-08.926307,"75.38,71.13"
2024-05-28_13-46-08.955121,"84.99,62.45"
2024-05-28_13-46-08.987836,"80.86,40.88"
2024-05-28_13-46-09.020620,"66.77,56.84"
2024-05-28_13-46-09.053323,"41.41,71.21"
2024-05-28_13-46-09.086251,"60.60,75.90"
2024-05-28_13-46-09.118892,"58.35,66.55"
2024-05-28_13-46-09.151569,"69.17,72.21"
2024-05-28_13-46-09.180294,"60.04,69.33"
2024-05-28_13-46-09.213128,"79.39,82.69"
2024-05-28_13-46-09.245972,"80.97,77.14"
2024-05-28_13-46-09.278754,"73.13,65.90"
2024-05-28_13-46-09.311913,"87.74,38.41"
2024-05-28_13-46-09.344394,"67.89,45.02"
2024-05-28_13-46-09.377121,"50.60,61.97"
2024-05-28_13-46-09.405626,"50.13,76.31"
2024-05-28_13-46-09.438396,"57.53,64.81"
2024-05-28_13-46-09.471245,"55.03,71.82"
2024-05-28_13-46-09.504177,"69.50,70.16"
2024-05-28_13-46-09.536710,"51.86,82.90"
2024-05-28_13-46-09.569454,"89.54,79.01"
2024-05-28_13-46-09.602108,"72.79,49.54"
2024-05-28_13-46-09.630843,"90.38,35.10"
2024-05-28_13-46-09.663659,"66.78,50.89"
2024-05-28_13-46-09.696426,"63.75,47.92"
2024-05-28_13-46-09.729223,"52.58,71.79"
2024-05-28_13-46-09.761941,"61.35,65.79"
2024-05-28_13-46-09.794728,"49.83,71.68"
2024-05-28_13-46-09.827383,"66.40,78.57"
2024-05-28_13-46-09.856158,"49.71,69.87"
2024-05-28_13-46-09.888911,"89.46,79.25"
2024-05-28_13-46-09.921688,"71.21,71.90"
2024-05-28_13-46-09.954710,"87.95,61.67"
2024-05-28_13-46-09.987231,"80.47,40.65"
2024-05-28_13-46-10.020029,"60.85,53.40"
2024-05-28_13-46-10.052649,"65.46,73.65"
2024-05-28_13-46-10.081379,"59.91,65.22"
2024-05-28_13-46-10.114196,"61.08,76.20"
2024-05-28_13-46-10.147086,"68.07,72.69"
2024-05-28_13-46-10.180348,"58.37,68.75"
2024-05-28_13-46-10.212512,"76.22,74.00"
2024-05-28_13-46-10.245304,"89.42,65.01"
2024-05-28_13-46-10.281342,"69.75,77.09"
2024-05-28_13-46-10.310226,"87.08,41.48"
2024-05-28_13-46-10.339519,"59.79,45.58"
2024-05-28_13-46-10.372264,"67.62,46.43"
2024-05-28_13-46-10.404951,"53.69,76.11"
2024-05-28_13-46-10.437750,"74.59,69.71"
2024-05-28_13-46-10.470715,"54.77,71.91"
2024-05-28_13-46-10.503356,"79.38,69.46"
2024-05-28_13-46-10.535928,"49.82,84.84"
2024-05-28_13-46-10.564723,"96.49,72.31"
2024-05-28_13-46-10.597507,"62.37,68.57"
2024-05-28_13-46-10.630278,"83.66,59.86"
2024-05-28_13-46-10.663009,"86.69,46.31"
2024-05-28_13-46-10.695765,"59.73,59.58"
2024-05-28_13-46-10.728456,"52.52,74.73"
2024-05-28_13-46-10.761260,"55.66,64.38"
2024-05-28_13-46-10.795962,"54.72,71.98"
2024-05-28_13-46-10.823303,"73.93,67.38"
2024-05-28_13-46-10.855870,"52.71,79.33"
2024-05-28_13-46-10.888487,"68.91,78.23"
2024-05-28_13-46-10.921085,"81.03,70.17"
2024-05-28_13-46-10.953794,"77.96,73.62"
2024-05-28_13-46-10.986700,"95.21,47.40"
2024-05-28_13-46-11.015219,"64.98,59.15"
2024-05-28_13-46-11.048048,"67.28,59.60"
2024-05-28_13-46-11.080834,"57.97,65.14"
2024-05-28_13-46-11.113586,"47.32,69.57"
2024-05-28_13-46-11.146296,"63.10,76.63"
2024-05-28_13-46-11.179135,"67.67,69.07"
2024-05-28_13-46-11.211793,"51.50,74.08"
2024-05-28_13-46-11.240588,"86.71,77.49"
2024-05-28_13-46-11.273798,"74.31,78.00"
2024-05-28_13-46-11.306111,"84.81,42.14"
2024-05-28_13-46-11.338827,"68.42,43.43"
2024-05-28_13-46-11.371601,"75.32,57.94"
2024-05-28_13-46-11.404289,"54.09,64.83"
2024-05-28_13-46-11.436986,"57.43,78.21"
2024-05-28_13-46-11.465783,"54.69,72.11"
2024-05-28_13-46-11.498674,"63.90,67.09"
2024-05-28_13-46-11.531414,"55.86,73.14"
2024-05-28_13-46-11.564148,"68.39,74.23"
2024-05-28_13-46-11.596896,"76.48,81.96"
2024-05-28_13-46-11.629555,"81.44,62.01"
2024-05-28_13-46-11.662269,"88.86,45.72"
2024-05-28_13-46-11.691240,"67.57,44.00"
2024-05-28_13-46-11.723799,"66.90,76.83"
2024-05-28_13-46-11.756596,"53.74,65.75"
2024-05-28_13-46-11.789390,"51.93,70.26"
2024-05-28_13-46-11.822122,"62.38,66.70"
2024-05-28_13-46-11.854830,"59.06,73.00"
2024-05-28_13-46-11.887684,"51.31,80.75"
2024-05-28_13-46-11.916330,"79.90,77.18"
2024-05-28_13-46-11.949140,"74.28,75.18"
2024-05-28_13-46-11.981802,"88.71,48.11"
2024-05-28_13-46-12.014697,"82.67,38.79"
2024-05-28_13-46-12.047407,"76.31,63.27"
2024-05-28_13-46-12.080169,"50.61,63.73"
2024-05-28_13-46-12.112816,"52.75,70.25"
2024-05-28_13-46-12.141728,"60.53,66.80"
2024-05-28_13-46-12.174409,"67.00,77.72"
2024-05-28_13-46-12.207278,"52.47,74.20"
2024-05-28_13-46-12.239885,"54.58,72.62"
2024-05-28_13-46-12.273261,"88.84,78.04"
2024-05-28_13-46-12.305397,"79.06,67.78"
2024-05-28_13-46-12.338070,"91.60,60.83"
2024-05-28_13-46-12.366890,"76.92,59.99"
2024-05-28_13-46-12.399667,"60.13,47.97"
2024-05-28_13-46-12.432371,"45.05,69.66"
2024-05-28_13-46-12.465199,"74.31,80.58"
2024-05-28_13-46-12.497967,"70.83,68.39"
2024-05-28_13-46-12.530686,"58.30,72.99"
2024-05-28_13-46-12.563389,"56.76,83.41"
2024-05-28_13-46-12.593300,"95.79,86.33"
2024-05-28_13-46-12.625497,"75.85,75.77"
2024-05-28_13-46-12.657703,"83.24,44.63"
2024-05-28_13-46-12.690453,"67.11,38.96"
2024-05-28_13-46-12.723816,"67.58,68.77"
2024-05-28_13-46-12.755931,"61.77,63.06"
2024-05-28_13-46-12.788589,"52.80,71.65"
2024-05-28_13-46-12.817367,"60.20,65.45"
2024-05-28_13-46-12.850172,"55.48,73.19"
2024-05-28_13-46-12.885032,"63.27,69.52"
2024-05-28_13-46-12.915655,"69.13,83.13"
2024-05-28_13-46-12.948455,"76.18,78.46"
2024-05-28_13-46-12.981185,"77.50,66.97"
2024-05-28_13-46-13.013973,"91.58,35.00"
2024-05-28_13-46-13.042901,"68.22,60.15"
2024-05-28_13-46-13.075631,"65.93,65.52"
2024-05-28_13-46-13.108349,"52.14,70.84"
2024-05-28_13-46-13.140969,"60.91,65.36"
2024-05-28_13-46-13.173863,"49.79,70.68"
2024-05-28_13-46-13.206547,"68.31,78.35"
2024-05-28_13-46-13.239219,"50.21,71.08"
2024-05-28_13-46-13.267960,"68.76,77.80"
2024-05-28_13-46-13.300703,"71.38,74.16"
2024-05-28_13-46-13.333452,"84.72,61.55"
2024-05-28_13-46-13.366241,"91.52,41.36"
2024-05-28_13-46-13.398991,"66.96,60.53"
2024-05-28_13-46-13.431818,"48.79,75.51"
2024-05-28_13-46-13.464394,"57.39,66.50"
2024-05-28_13-46-13.493236,"58.94,76.35"
2024-05-28_13-46-13.526114,"52.78,71.73"
2024-05-28_13-46-13.559115,"70.66,68.24"
2024-05-28_13-46-13.591767,"56.67,79.20"
2024-05-28_13-46-13.624430,"91.26,67.73"
2024-05-28_13-46-13.657087,"63.69,78.76"
2024-05-28_13-46-13.689714,"86.05,62.06"
2024-05-28_13-46-13.718481,"83.99,45.33"
2024-05-28_13-46-13.751258,"79.74,54.18"
2024-05-28_13-46-13.784022,"56.09,75.50"
2024-05-28_13-46-13.816807,"57.29,65.97"
2024-05-28_13-46-13.849586,"53.95,70.70"
2024-05-28_13-46-13.882275,"70.93,68.38"
2024-05-28_13-46-13.914933,"48.40,73.53"
2024-05-28_13-46-13.943734,"68.28,83.60"
2024-05-28_13-46-13.976500,"62.51,72.41"
2024-05-28_13-46-14.009280,"78.08,59.75"
2024-05-28_13-46-14.042084,"102.34,46.78"
2024-05-28_13-46-14.074779,"63.25,59.30"
2024-05-28_13-46-14.107593,"58.52,59.63"
2024-05-28_13-46-14.140250,"53.52,64.14"
2024-05-28_13-46-14.169025,"54.44,70.62"
2024-05-28_13-46-14.202041,"62.39,67.81"
2024-05-28_13-46-14.234557,"59.22,78.83"
2024-05-28_13-46-14.268609,"51.79,75.22"
2024-05-28_13-46-14.302347,"91.18,77.62"
2024-05-28_13-46-14.332980,"75.78,74.19"
2024-05-28_13-46-14.365661,"90.05,47.86"
2024-05-28_13-46-14.398262,"67.88,39.33"
2024-05-28_13-46-14.427072,"65.54,66.74"
2024-05-28_13-46-14.459819,"56.49,67.42"
2024-05-28_13-46-14.492584,"47.21,69.49"
2024-05-28_13-46-14.525303,"61.84,77.03"
2024-05-28_13-46-14.558177,"62.90,69.19"
2024-05-28_13-46-14.590783,"50.13,73.34"
2024-05-28_13-46-14.623493,"82.05,88.34"
2024-05-28_13-46-14.652319,"72.97,79.99"
2024-05-28_13-46-14.685017,"80.45,61.04"
2024-05-28_13-46-14.717835,"74.70,42.44"
2024-05-28_13-46-14.750621,"73.45,38.07"
2024-05-28_13-46-14.783405,"52.21,64.56"
2024-05-28_13-46-14.816270,"54.22,75.98"
2024-05-28_13-46-14.848779,"54.55,71.76"
2024-05-28_13-46-14.877600,"68.76,66.56"
2024-05-28_13-46-14.910356,"59.01,74.14"
2024-05-28_13-46-14.943130,"68.64,75.42"
2024-05-28_13-46-14.975890,"77.28,77.80"
2024-05-28_13-46-15.008675,"77.34,61.12"
2024-05-28_13-46-15.043888,"96.42,46.87"
2024-05-28_13-46-15.074955,"58.49,59.94"
2024-05-28_13-46-15.102875,"67.42,61.42"
2024-05-28_13-46-15.136901,"52.50,65.87"
2024-05-28_13-46-15.168509,"53.49,70.75"
2024-05-28_13-46-15.201189,"62.81,65.99"
2024-05-28_13-46-15.233944,"65.92,73.21"
2024-05-28_13-46-15.266616,"51.71,80.72"
2024-05-28_13-46-15.299297,"82.41,72.94"
2024-05-28_13-46-15.328117,"72.85,76.16"
2024-05-28_13-46-15.360932,"86.51,49.11"
2024-05-28_13-46-15.393751,"81.11,38.96"
2024-05-28_13-46-15.426596,"86.54,61.75"
2024-05-28_13-46-15.459297,"50.28,64.39"
2024-05-28_13-46-15.492015,"50.29,74.52"
2024-05-28_13-46-15.524646,"62.40,66.73"
2024-05-28_13-46-15.553434,"65.83,77.94"
2024-05-28_13-46-15.587184,"52.30,73.93"
2024-05-28_13-46-15.618895,"55.69,74.55"
2024-05-28_13-46-15.651771,"72.43,77.88"
2024-05-28_13-46-15.684477,"86.16,48.91"
2024-05-28_13-46-15.717189,"79.07,39.66"
2024-05-28_13-46-15.749871,"86.93,60.82"
2024-05-28_13-46-15.778663,"56.84,64.32"
2024-05-28_13-46-15.811391,"47.41,70.34"
2024-05-28_13-46-15.844211,"65.51,77.18"
2024-05-28_13-46-15.876921,"58.97,68.12"
2024-05-28_13-46-15.909868,"62.64,76.07"
2024-05-28_13-46-15.942452,"72.76,73.59"
2024-05-28_13-46-15.975179,"84.81,83.16"
2024-05-28_13-46-16.003931,"74.67,41.86"
2024-05-28_13-46-16.036688,"70.87,44.24"
2024-05-28_13-46-16.069614,"78.67,56.16"
2024-05-28_13-46-16.102244,"73.93,46.72"
2024-05-28_13-46-16.135003,"57.17,76.48"
2024-05-28_13-46-16.167769,"54.66,70.86"
2024-05-28_13-46-16.200450,"61.97,66.00"
2024-05-28_13-46-16.229295,"58.61,73.34"
2024-05-28_13-46-16.261941,"78.44,71.67"
2024-05-28_13-46-16.294764,"63.53,87.35"
2024-05-28_13-46-16.327526,"71.92,62.91"
2024-05-28_13-46-16.360303,"85.91,48.44"
2024-05-28_13-46-16.393111,"86.30,34.39"
2024-05-28_13-46-16.425735,"86.48,62.55"
2024-05-28_13-46-16.454474,"50.21,64.97"
2024-05-28_13-46-16.487223,"52.35,73.73"
2024-05-28_13-46-16.519995,"63.90,65.73"
2024-05-28_13-46-16.552752,"69.71,72.27"
2024-05-28_13-46-16.585542,"64.71,81.63"
2024-05-28_13-46-16.618294,"66.89,74.87"
2024-05-28_13-46-16.650924,"87.88,81.11"
2024-05-28_13-46-16.679835,"72.90,50.82"
2024-05-28_13-46-16.712571,"91.97,41.49"
2024-05-28_13-46-16.745263,"67.62,65.90"
2024-05-28_13-46-16.778005,"62.81,44.21"
2024-05-28_13-46-16.810820,"52.29,71.09"
2024-05-28_13-46-16.843615,"63.86,65.46"
2024-05-28_13-46-16.876397,"58.45,78.28"
2024-05-28_13-46-16.908991,"66.63,74.36"
2024-05-28_13-46-16.937795,"74.19,80.18"
2024-05-28_13-46-16.970545,"89.16,69.14"
2024-05-28_13-46-17.003389,"73.71,71.29"
2024-05-28_13-46-17.036075,"83.82,43.12"
2024-05-28_13-46-17.068914,"81.43,40.62"
2024-05-28_13-46-17.101494,"68.96,52.44"
2024-05-28_13-46-17.134191,"59.29,72.22"
2024-05-28_13-46-17.163070,"61.03,76.23"
2024-05-28_13-46-17.195831,"61.13,66.81"
2024-05-28_13-46-17.228633,"57.39,73.48"
2024-05-28_13-46-17.261369,"75.01,69.66"
2024-05-28_13-46-17.294174,"77.96,86.09"
2024-05-28_13-46-17.326831,"79.43,77.89"
2024-05-28_13-46-17.359582,"67.76,47.66"
2024-05-28_13-46-17.388301,"87.20,38.53"
2024-05-28_13-46-17.421043,"67.98,63.00"
2024-05-28_13-46-17.453857,"66.22,50.85"
2024-05-28_13-46-17.494355,"49.89,73.27"
2024-05-28_13-46-17.519377,"73.80,68.21"
2024-05-28_13-46-17.552088,"57.17,73.42"
2024-05-28_13-46-17.584774,"76.75,70.30"
2024-05-28_13-46-17.613573,"60.95,81.24"
2024-05-28_13-46-17.646362,"80.17,80.21"
2024-05-28_13-46-17.679122,"85.52,66.32"
2024-05-28_13-46-17.711887,"75.18,58.99"
2024-05-28_13-46-17.744639,"92.27,47.92"
2024-05-28_13-46-17.777415,"67.65,38.54"
2024-05-28_13-46-17.810156,"64.42,73.46"
2024-05-28_13-46-17.838863,"57.83,64.71"
2024-05-28_13-46-17.871597,"46.50,69.79"
2024-05-28_13-46-17.904393,"62.38,76.37"
2024-05-28_13-46-17.937099,"74.97,68.62"
2024-05-28_13-46-17.969953,"50.01,74.82"
2024-05-28_13-46-18.002648,"92.97,74.10"
2024-05-28_13-46-18.035335,"72.59,80.36"
2024-05-28_13-46-18.064148,"80.77,41.21"
2024-05-28_13-46-18.096905,"74.79,43.87"
2024-05-28_13-46-18.129663,"73.28,50.71"
2024-05-28_13-46-18.162416,"64.37,66.05"
2024-05-28_13-46-18.195264,"55.64,76.06"
2024-05-28_13-46-18.227915,"54.51,72.16"
2024-05-28_13-46-18.260578,"72.74,67.25"
2024-05-28_13-46-18.289384,"62.55,75.50"
2024-05-28_13-46-18.322189,"69.93,69.72"
2024-05-28_13-46-18.354909,"84.80,86.84"
2024-05-28_13-46-18.387690,"75.37,76.33"
2024-05-28_13-46-18.420454,"90.90,48.18"
2024-05-28_13-46-18.453168,"74.43,33.86"
2024-05-28_13-46-18.485835,"66.55,72.21"
2024-05-28_13-46-18.514637,"50.58,66.66"
2024-05-28_13-46-18.547422,"52.86,74.07"
2024-05-28_13-46-18.580203,"63.11,67.03"
2024-05-28_13-46-18.612967,"71.34,71.94"
2024-05-28_13-46-18.645740,"52.34,79.72"
2024-05-28_13-46-18.679592,"85.57,71.37"
2024-05-28_13-46-18.711218,"72.72,76.57"
2024-05-28_13-46-18.739964,"80.52,49.14"
2024-05-28_13-46-18.772830,"77.57,40.04"
2024-05-28_13-46-18.805457,"72.59,41.48"
2024-05-28_13-46-18.838213,"47.30,63.30"
2024-05-28_13-46-18.871096,"55.14,70.79"
2024-05-28_13-46-18.903738,"63.96,66.63"
2024-05-28_13-46-18.936431,"68.67,77.11"
2024-05-28_13-46-18.965225,"52.89,73.68"
2024-05-28_13-46-18.997949,"54.64,72.88"
2024-05-28_13-46-19.030663,"74.91,63.22"
2024-05-28_13-46-19.063498,"82.01,50.34"
2024-05-28_13-46-19.096314,"74.86,41.55"
2024-05-28_13-46-19.129058,"78.71,60.54"
2024-05-28_13-46-19.161698,"67.17,46.38"
2024-05-28_13-46-19.190447,"42.81,70.14"
2024-05-28_13-46-19.223473,"61.77,76.60"
2024-05-28_13-46-19.255981,"55.99,66.82"
2024-05-28_13-46-19.288759,"66.10,72.54"
2024-05-28_13-46-19.321570,"59.13,69.77"
2024-05-28_13-46-19.354290,"77.67,83.14"
2024-05-28_13-46-19.386937,"77.40,76.88"
2024-05-28_13-46-19.415700,"75.93,47.81"
2024-05-28_13-46-19.448634,"88.34,38.02"
2024-05-28_13-46-19.481223,"66.67,68.87"
2024-05-28_13-46-19.514059,"51.53,62.36"
2024-05-28_13-46-19.546819,"49.51,73.70"
2024-05-28_13-46-19.579540,"58.36,64.87"
2024-05-28_13-46-19.612229,"55.85,71.15"
2024-05-28_13-46-19.641061,"74.80,69.49"
2024-05-28_13-46-19.676627,"49.45,89.43"
2024-05-28_13-46-19.706557,"94.97,69.71"
2024-05-28_13-46-19.739284,"67.33,69.53"
2024-05-28_13-46-19.772064,"84.33,57.29"
2024-05-28_13-46-19.804883,"78.66,58.90"
2024-05-28_13-46-19.837503,"60.19,58.97"
2024-05-28_13-46-19.866230,"52.23,72.82"
2024-05-28_13-46-19.899070,"60.98,65.42"
2024-05-28_13-46-19.931713,"48.12,70.74"
2024-05-28_13-46-19.964580,"75.64,77.30"
2024-05-28_13-46-19.997330,"57.80,70.21"
2024-05-28_13-46-20.030034,"69.41,82.31"
2024-05-28_13-46-20.062808,"87.98,64.59"
2024-05-28_13-46-20.095468,"79.36,77.31"
2024-05-28_13-46-20.124232,"87.06,40.57"
2024-05-28_13-46-20.157047,"52.51,42.81"
