timestamp,EMG
2024-05-28_13-18-29.403988,"66,77.59"
2024-05-28_13-18-29.404619,"85.63,64.48"
2024-05-28_13-18-29.404869,"69.83,81.66"
2024-05-28_13-18-29.405145,"57.82,76.62"
2024-05-28_13-18-29.405401,".95,68.80"
2024-05-28_13-18-29.405595,"74.88,79.39"
2024-05-28_13-18-29.405808,"81.92,70.97"
2024-05-28_13-18-29.405980,"94.30,64.04"
2024-05-28_13-18-29.406120,"76.67,76.30"
2024-05-28_13-18-29.406251,"71.17,77.54"
2024-05-28_13-18-29.406391,"76.66,77.59"
2024-05-28_13-18-29.406531,"85.63,64.48"
2024-05-28_13-18-29.406642,"69.83,81.66"
2024-05-28_13-18-29.406750,"57.82,76.62"
2024-05-28_13-18-31.061062,"73.62,61.36"
2024-05-28_13-18-31.093563,"94.53,84.74"
2024-05-28_13-18-31.122318,"78.46,55.37"
2024-05-28_13-18-31.155126,"84.41,81.30"
2024-05-28_13-18-31.187878,"66.87,66.93"
2024-05-28_13-18-31.220623,"96.48,88.33"
2024-05-28_13-18-31.253415,"81.77,71.04"
2024-05-28_13-18-31.286183,"87.91,76.21"
2024-05-28_13-18-31.318869,"78.68,77.94"
2024-05-28_13-18-31.347634,"75.46,70.97"
2024-05-28_13-18-31.380381,"87.06,80.97"
2024-05-28_13-18-31.456778,"90.80,81.87"
2024-05-28_13-18-31.459185,"91.41,78.29"
2024-05-28_13-18-31.480461,"75.59,84.81"
2024-05-28_13-18-31.512017,"77.59,100.76"
2024-05-28_13-18-31.544151,"74.76,81.39"
2024-05-28_13-18-31.573494,"81.07,85.56"
2024-05-28_13-18-31.605858,"89.48,73.58"
2024-05-28_13-18-31.638525,"83.53,79.32"
2024-05-28_13-18-31.671290,"80.47,83.13"
2024-05-28_13-18-31.704008,"74.24,71.59"
2024-05-28_13-18-31.736773,"87.75,80.97"
2024-05-28_13-18-31.769442,"85.95,73.22"
2024-05-28_13-18-31.798147,"80.27,78.37"
2024-05-28_13-18-31.830932,"101.23,56.75"
2024-05-28_13-18-31.863719,"64.45,81.34"
2024-05-28_13-18-31.896473,"76.84,89.62"
2024-05-28_13-18-31.929301,"85.60,85.43"
2024-05-28_13-18-31.962145,"90.96,74.95"
2024-05-28_13-18-31.994746,"100.41,82.76"
2024-05-28_13-18-32.027416,"87.97,72.57"
2024-05-28_13-18-32.056207,"72.46,79.14"
2024-05-28_13-18-32.089001,"81.02,70.35"
2024-05-28_13-18-32.121787,"88.98,82.24"
2024-05-28_13-18-32.154540,"89.13,51.78"
2024-05-28_13-18-32.187312,"96.76,52.68"
2024-05-28_13-18-32.220025,"72.54,73.69"
2024-05-28_13-18-32.252720,"89.11,91.72"
2024-05-28_13-18-32.281540,"96.10,83.88"
2024-05-28_13-18-32.314309,"84.38,71.72"
2024-05-28_13-18-32.347051,"77.45,76.67"
2024-05-28_13-18-32.380000,"86.84,76.35"
2024-05-28_13-18-32.412643,"79.43,83.56"
2024-05-28_13-18-32.445298,"75.63,70.51"
2024-05-28_13-18-32.477980,"90.15,81.45"
2024-05-28_13-18-32.506802,"82.12,71.65"
2024-05-28_13-18-32.539602,"94.94,47.05"
2024-05-28_13-18-32.572326,"70.87,84.23"
2024-05-28_13-18-32.605113,"77.79,77.22"
2024-05-28_13-18-32.637893,"96.99,83.55"
2024-05-28_13-18-32.670588,"92.91,80.41"
2024-05-28_13-18-32.703316,"84.78,83.93"
2024-05-28_13-18-32.732287,"82.40,77.71"
2024-05-28_13-18-32.765120,"84.02,69.87"
2024-05-28_13-18-32.797630,"92.13,76.71"
2024-05-28_13-18-32.830480,"84.76,55.22"
2024-05-28_13-18-32.863162,"97.25,70.52"
2024-05-28_13-18-32.895888,"96.93,51.62"
2024-05-28_13-18-32.928559,"61.60,78.24"
2024-05-28_13-18-32.957354,"78.81,86.34"
2024-05-28_13-18-32.990176,"106.12,91.28"
2024-05-28_13-18-33.022988,"83.65,69.64"
2024-05-28_13-18-33.055742,"104.48,84.12"
2024-05-28_13-18-33.088483,"77.74,74.03"
2024-05-28_13-18-33.121148,"84.64,77.05"
2024-05-28_13-18-33.153867,"92.12,83.30"
2024-05-28_13-18-33.182623,"77.56,70.25"
2024-05-28_13-18-33.215424,"87.61,68.38"
2024-05-28_13-18-33.248180,"90.97,56.49"
2024-05-28_13-18-33.280968,"70.75,48.59"
2024-05-28_13-18-33.313693,"87.61,90.17"
2024-05-28_13-18-33.346441,"99.10,82.39"
2024-05-28_13-18-33.379128,"84.98,83.81"
2024-05-28_13-18-33.407939,"75.67,74.03"
2024-05-28_13-18-33.440717,"88.88,82.56"
2024-05-28_13-18-33.473510,"84.84,80.44"
2024-05-28_13-18-33.506245,"83.91,67.82"
2024-05-28_13-18-33.539025,"81.76,81.69"
2024-05-28_13-18-33.571738,"102.91,72.57"
2024-05-28_13-18-33.604430,"86.34,54.21"
2024-05-28_13-18-33.633191,"63.40,94.84"
2024-05-28_13-18-33.665975,"92.82,81.64"
2024-05-28_13-18-33.698733,"93.34,83.54"
2024-05-28_13-18-33.731596,"82.23,80.51"
2024-05-28_13-18-33.764327,"91.29,75.90"
2024-05-28_13-18-33.797178,"101.45,81.51"
2024-05-28_13-18-33.829719,"84.88,71.55"
2024-05-28_13-18-33.858490,"80.95,76.40"
2024-05-28_13-18-33.891415,"95.60,84.73"
2024-05-28_13-18-33.924071,"73.43,60.74"
2024-05-28_13-18-33.956940,"89.06,57.18"
2024-05-28_13-18-33.989606,"65.24,74.64"
2024-05-28_13-18-34.023748,"94.17,78.78"
2024-05-28_13-18-34.055222,"87.06,60.18"
2024-05-28_13-18-34.083837,"72.78,100.00"
2024-05-28_13-18-34.117821,"69.81,83.95"
2024-05-28_13-18-34.149576,"92.21,72.69"
2024-05-28_13-18-34.182153,"88.70,72.67"
2024-05-28_13-18-34.214867,"87.95,68.06"
2024-05-28_13-18-34.247571,"84.22,67.86"
2024-05-28_13-18-34.280284,"97.83,68.24"
2024-05-28_13-18-34.309080,"85.37,73.36"
2024-05-28_13-18-34.341879,"76.64,87.04"
2024-05-28_13-18-34.374593,"93.03,85.32"
2024-05-28_13-18-34.407389,"83.20,68.78"
2024-05-28_13-18-34.440150,"81.39,77.97"
2024-05-28_13-18-34.472964,"80.38,83.62"
2024-05-28_13-18-34.505592,"72.44,70.59"
2024-05-28_13-18-34.534461,"87.67,80.06"
2024-05-28_13-18-34.567148,"87.58,71.50"
2024-05-28_13-18-34.599889,"80.81,45.55"
2024-05-28_13-18-34.632645,"107.84,56.08"
2024-05-28_13-18-34.665448,"62.58,73.04"
2024-05-28_13-18-34.698225,"77.98,91.77"
2024-05-28_13-18-34.731198,"95.01,87.17"
2024-05-28_13-18-34.763697,"100.69,76.65"
2024-05-28_13-18-34.792438,"96.32,82.46"
2024-05-28_13-18-34.825217,"82.34,70.04"
2024-05-28_13-18-34.857937,"85.76,79.04"
2024-05-28_13-18-34.890706,"81.10,70.98"
2024-05-28_13-18-34.923487,"88.67,82.62"
2024-05-28_13-18-34.956181,"87.82,68.63"
2024-05-28_13-18-34.988879,"92.54,51.93"
2024-05-28_13-18-35.017686,"71.71,58.48"
2024-05-28_13-18-35.050421,"89.19,88.57"
2024-05-28_13-18-35.083245,"94.98,79.24"
2024-05-28_13-18-35.116116,"87.96,84.37"
2024-05-28_13-18-35.148803,"82.75,75.32"
2024-05-28_13-18-35.181445,"89.15,76.26"
2024-05-28_13-18-35.214137,"83.57,84.04"
2024-05-28_13-18-35.242990,"76.72,70.49"
2024-05-28_13-18-35.275749,"89.28,81.23"
2024-05-28_13-18-35.308506,"91.07,55.96"
2024-05-28_13-18-35.341303,"95.04,46.69"
2024-05-28_13-18-35.374169,"60.63,82.00"
2024-05-28_13-18-35.406771,"93.89,80.72"
2024-05-28_13-18-35.439452,"84.63,82.13"
2024-05-28_13-18-35.468283,"74.20,65.83"
2024-05-28_13-18-35.501119,"92.70,83.24"
2024-05-28_13-18-35.533870,"85.75,79.36"
2024-05-28_13-18-35.566579,"87.28,68.57"
2024-05-28_13-18-35.599341,"83.11,80.25"
2024-05-28_13-18-35.632089,"86.46,71.73"
2024-05-28_13-18-35.664752,"89.28,70.27"
2024-05-28_13-18-35.693530,"90.80,53.63"
2024-05-28_13-18-35.726307,"57.68,71.22"
2024-05-28_13-18-35.759779,"98.30,88.68"
2024-05-28_13-18-35.792408,"89.73,61.70"
2024-05-28_13-18-35.824687,"67.91,92.84"
2024-05-28_13-18-35.857325,"73.70,81.50"
2024-05-28_13-18-35.890076,"83.07,71.22"
2024-05-28_13-18-35.918833,"77.26,76.91"
2024-05-28_13-18-35.951673,"95.85,84.56"
2024-05-28_13-18-35.984443,"76.17,69.72"
2024-05-28_13-18-36.017166,"105.02,52.64"
2024-05-28_13-18-36.049943,"81.10,62.29"
2024-05-28_13-18-36.082636,"80.41,91.43"
2024-05-28_13-18-36.115367,"94.77,92.85"
2024-05-28_13-18-36.144136,"84.96,67.73"
2024-05-28_13-18-36.176891,"79.08,80.14"
2024-05-28_13-18-36.209644,"82.59,73.50"
2024-05-28_13-18-36.242422,"94.82,81.72"
2024-05-28_13-18-36.275228,"86.43,79.17"
2024-05-28_13-18-36.307926,"84.26,67.91"
2024-05-28_13-18-36.340620,"82.40,81.42"
2024-05-28_13-18-36.369410,"93.21,54.99"
2024-05-28_13-18-36.402179,"76.02,55.35"
2024-05-28_13-18-36.434942,"74.80,70.67"
2024-05-28_13-18-36.467705,"89.36,72.70"
2024-05-28_13-18-36.500522,"91.76,83.54"
2024-05-28_13-18-36.533238,"90.56,89.42"
2024-05-28_13-18-36.565922,"71.19,72.65"
2024-05-28_13-18-36.594695,"89.39,78.34"
2024-05-28_13-18-36.627470,"80.38,71.01"
2024-05-28_13-18-36.660250,"80.87,77.01"
2024-05-28_13-18-36.692968,"92.67,84.41"
2024-05-28_13-18-36.725761,"93.63,55.10"
2024-05-28_13-18-36.758511,"73.46,58.93"
2024-05-28_13-18-36.791263,"87.60,85.79"
2024-05-28_13-18-36.820064,"92.81,88.50"
2024-05-28_13-18-36.852762,"89.99,86.46"
2024-05-28_13-18-36.885498,"89.98,73.89"
2024-05-28_13-18-36.918289,"78.55,77.72"
2024-05-28_13-18-36.951048,"79.86,70.64"
2024-05-28_13-18-36.983747,"88.44,81.41"
2024-05-28_13-18-37.016495,"89.70,81.67"
2024-05-28_13-18-37.045243,"84.06,68.07"
2024-05-28_13-18-37.078022,"91.65,51.05"
2024-05-28_13-18-37.110813,"73.39,74.80"
2024-05-28_13-18-37.143581,"82.07,77.55"
2024-05-28_13-18-37.176316,"84.83,80.99"
2024-05-28_13-18-37.209095,"84.88,68.15"
2024-05-28_13-18-37.241813,"88.46,76.60"
2024-05-28_13-18-37.270530,"84.78,84.05"
2024-05-28_13-18-37.303304,"65.97,70.33"
2024-05-28_13-18-37.336067,"86.96,79.76"
2024-05-28_13-18-37.368843,"83.23,71.91"
2024-05-28_13-18-37.402164,"90.27,63.94"
2024-05-28_13-18-37.434457,"101.31,56.69"
2024-05-28_13-18-37.467054,"55.91,61.94"
2024-05-28_13-18-37.495846,"94.26,88.84"
2024-05-28_13-18-37.528584,"92.74,86.94"
2024-05-28_13-18-37.561343,"83.61,76.38"
2024-05-28_13-18-37.594124,"77.32,78.20"
2024-05-28_13-18-37.626888,"82.85,69.26"
2024-05-28_13-18-37.659692,"85.66,79.32"
2024-05-28_13-18-37.692381,"84.56,70.96"
2024-05-28_13-18-37.721127,"87.89,82.74"
2024-05-28_13-18-37.753884,"96.65,68.88"
2024-05-28_13-18-37.786639,"91.51,53.53"
2024-05-28_13-18-37.819426,"64.70,79.14"
2024-05-28_13-18-37.852186,"94.17,89.33"
2024-05-28_13-18-37.884935,"83.86,65.91"
2024-05-28_13-18-37.917621,"78.05,80.94"
2024-05-28_13-18-37.950352,"80.21,73.42"
2024-05-28_13-18-37.979157,"82.46,75.53"
2024-05-28_13-18-38.011984,"85.56,83.23"
2024-05-28_13-18-38.044801,"76.94,69.91"
2024-05-28_13-18-38.077493,"92.52,69.57"
2024-05-28_13-18-38.110711,"87.59,56.86"
2024-05-28_13-18-38.142927,"84.09,65.88"
2024-05-28_13-18-38.175650,"68.43,83.84"
2024-05-28_13-18-38.204440,"93.13,75.40"
2024-05-28_13-18-38.237355,"94.03,72.48"
2024-05-28_13-18-38.270035,"101.64,81.78"
2024-05-28_13-18-38.302723,"82.21,83.68"
2024-05-28_13-18-38.335527,"89.51,78.18"
2024-05-28_13-18-38.368297,"81.79,68.12"
2024-05-28_13-18-38.400931,"83.46,80.76"
2024-05-28_13-18-38.429735,"84.46,71.00"
2024-05-28_13-18-38.462493,"101.62,54.32"
2024-05-28_13-18-38.495338,"75.43,53.11"
2024-05-28_13-18-38.528023,"75.79,76.94"
2024-05-28_13-18-38.560964,"102.81,94.91"
2024-05-28_13-18-38.595186,"88.05,81.09"
2024-05-28_13-18-38.627053,"65.31,77.67"
2024-05-28_13-18-38.656290,"78.78,87.25"
2024-05-28_13-18-38.687849,"85.07,59.55"
2024-05-28_13-18-38.726061,"94.17,56.71"
2024-05-28_13-18-38.762471,"109.40,72.11"
2024-05-28_13-18-38.800980,"90.97,91.27"
2024-05-28_13-18-38.819591,"70.60,71.05"
2024-05-28_13-18-38.851560,"89.76,92.65"
2024-05-28_13-18-38.880375,"89.68,81.37"
2024-05-28_13-18-38.913066,"70.11,82.42"
2024-05-28_13-18-38.945855,"85.87,67.80"
2024-05-28_13-18-38.978748,"82.95,80.00"
2024-05-28_13-18-39.011397,"86.26,75.39"
2024-05-28_13-18-39.044386,"84.18,81.81"
2024-05-28_13-18-39.076822,"86.95,80.33"
2024-05-28_13-18-39.105601,"84.97,68.24"
2024-05-28_13-18-39.138376,"80.97,51.31"
2024-05-28_13-18-39.171153,"103.91,56.36"
2024-05-28_13-18-39.203978,"67.97,61.85"
2024-05-28_13-18-39.236656,"88.31,88.14"
2024-05-28_13-18-39.269352,"97.56,79.19"
2024-05-28_13-18-39.302077,"81.77,72.34"
2024-05-28_13-18-39.330864,"86.81,86.07"
2024-05-28_13-18-39.363611,"76.39,71.31"
2024-05-28_13-18-39.396551,"80.84,79.13"
2024-05-28_13-18-39.429240,"85.73,71.12"
2024-05-28_13-18-39.461998,"82.37,78.29"
2024-05-28_13-18-39.494698,"109.22,72.18"
2024-05-28_13-18-39.527381,"78.69,56.64"
2024-05-28_13-18-39.556133,"70.88,58.18"
2024-05-28_13-18-39.590434,"86.86,83.89"
2024-05-28_13-18-39.621703,"95.19,74.51"
2024-05-28_13-18-39.654467,"88.98,84.41"
2024-05-28_13-18-39.687191,"82.34,72.04"
2024-05-28_13-18-39.719947,"80.15,78.21"
2024-05-28_13-18-39.752671,"87.20,71.07"
2024-05-28_13-18-39.781423,"87.80,81.27"
2024-05-28_13-18-39.814165,"89.90,69.21"
2024-05-28_13-18-39.846979,"102.31,52.46"
2024-05-28_13-18-39.879723,"90.57,51.15"
2024-05-28_13-18-39.912488,"61.19,95.72"
2024-05-28_13-18-39.945276,"93.55,77.57"
2024-05-28_13-18-39.977972,"100.21,87.84"
2024-05-28_13-18-40.006728,"75.13,80.56"
2024-05-28_13-18-40.039489,"83.81,77.67"
2024-05-28_13-18-40.072244,"86.75,83.49"
2024-05-28_13-18-40.104993,"70.76,69.74"
2024-05-28_13-18-40.137748,"88.22,80.78"
2024-05-28_13-18-40.170550,"83.48,71.97"
2024-05-28_13-18-40.203251,"94.06,63.62"
2024-05-28_13-18-40.231995,"86.28,81.64"
2024-05-28_13-18-40.264772,"53.37,75.77"
2024-05-28_13-18-40.297511,"95.76,89.13"
2024-05-28_13-18-40.330437,"81.89,70.03"
2024-05-28_13-18-40.363394,"99.12,86.43"
2024-05-28_13-18-40.395929,"76.45,79.36"
2024-05-28_13-18-40.428502,"85.74,70.21"
2024-05-28_13-18-40.457271,"81.16,79.59"
2024-05-28_13-18-40.490147,"85.87,69.83"
2024-05-28_13-18-40.522871,"92.28,87.06"
2024-05-28_13-18-40.555729,"88.36,89.97"
2024-05-28_13-18-40.588451,"83.77,95.55"
2024-05-28_13-18-40.621433,"86.35,69.84"
2024-05-28_13-18-40.656408,"92.26,91.16"
2024-05-28_13-18-40.682786,"96.71,85.31"
2024-05-28_13-18-40.715477,"66.12,93.06"
2024-05-28_13-18-40.748662,"67.77,76.76"
2024-05-28_13-18-40.780987,"89.97,78.11"
2024-05-28_13-18-40.813759,"94.58,74.99"
2024-05-28_13-18-40.846477,"83.11,72.06"
2024-05-28_13-18-40.879080,"88.41,82.53"
2024-05-28_13-18-40.911801,"93.28,55.60"
2024-05-28_13-18-40.940604,"77.88,52.53"
2024-05-28_13-18-40.973345,"75.32,93.62"
2024-05-28_13-18-41.006204,"86.85,83.55"
2024-05-28_13-18-41.038919,"83.34,72.98"
2024-05-28_13-18-41.071674,"88.35,75.85"
2024-05-28_13-18-41.104432,"86.72,80.81"
2024-05-28_13-18-41.137143,"78.61,79.08"
2024-05-28_13-18-41.165961,"85.81,68.63"
2024-05-28_13-18-41.198657,"82.47,81.51"
2024-05-28_13-18-41.231481,"84.81,72.25"
2024-05-28_13-18-41.264245,"96.64,54.32"
2024-05-28_13-18-41.297035,"70.93,61.35"
2024-05-28_13-18-41.329692,"82.20,77.39"
2024-05-28_13-18-41.362430,"93.62,91.47"
2024-05-28_13-18-41.391174,"79.96,86.52"
2024-05-28_13-18-41.423951,"74.56,74.09"
2024-05-28_13-18-41.456750,"83.23,78.26"
2024-05-28_13-18-41.489469,"80.13,71.35"
2024-05-28_13-18-41.522269,"80.34,76.46"
2024-05-28_13-18-41.554947,"95.54,84.28"
2024-05-28_13-18-41.587679,"75.96,69.88"
2024-05-28_13-18-41.616498,"97.96,51.22"
2024-05-28_13-18-41.649212,"74.04,61.87"
2024-05-28_13-18-41.681994,"83.46,87.56"
2024-05-28_13-18-41.715038,"90.56,85.80"
2024-05-28_13-18-41.747568,"86.65,68.40"
2024-05-28_13-18-41.780303,"92.68,82.84"
2024-05-28_13-18-41.812927,"75.85,72.93"
2024-05-28_13-18-41.841749,"89.92,80.89"
2024-05-28_13-18-41.874495,"87.92,80.34"
2024-05-28_13-18-41.907305,"85.71,68.90"
2024-05-28_13-18-41.940038,"81.89,68.46"
2024-05-28_13-18-41.972815,"97.41,58.44"
2024-05-28_13-18-42.005561,"63.45,57.62"
2024-05-28_13-18-42.038255,"90.80,85.18"
2024-05-28_13-18-42.067031,"84.26,75.38"
2024-05-28_13-18-42.099786,"79.28,82.05"
2024-05-28_13-18-42.132561,"78.68,84.27"
2024-05-28_13-18-42.165439,"76.90,71.91"
2024-05-28_13-18-42.198178,"99.36,72.09"
2024-05-28_13-18-42.230846,"83.82,73.02"
2024-05-28_13-18-42.264685,"80.90,78.41"
2024-05-28_13-18-42.292924,"90.01,75.62"
2024-05-28_13-18-42.326261,"73.97,70.64"
2024-05-28_13-18-42.358037,"85.68,94.62"
2024-05-28_13-18-42.390673,"79.20,89.96"
2024-05-28_13-18-42.423446,"98.14,82.97"
2024-05-28_13-18-42.456128,"82.10,79.91"
2024-05-28_13-18-42.488793,"82.37,73.21"
2024-05-28_13-18-42.517603,"81.83,78.99"
2024-05-28_13-18-42.550500,"84.48,71.19"
2024-05-28_13-18-42.583159,"88.29,82.43"
2024-05-28_13-18-42.615946,"90.59,82.61"
2024-05-28_13-18-42.648762,"84.27,57.79"
2024-05-28_13-18-42.681397,"86.33,79.95"
2024-05-28_13-18-42.714094,"62.18,80.88"
2024-05-28_13-18-42.742878,"95.26,78.11"
2024-05-28_13-18-42.776183,"104.25,85.23"
2024-05-28_13-18-42.808537,"80.20,71.88"
2024-05-28_13-18-42.841174,"85.74,80.73"
2024-05-28_13-18-42.873932,"85.95,83.02"
2024-05-28_13-18-42.906703,"70.97,70.26"
2024-05-28_13-18-42.939392,"88.49,80.04"
2024-05-28_13-18-42.968169,"82.99,71.38"
2024-05-28_13-18-43.000957,"88.32,63.75"
2024-05-28_13-18-43.033771,"91.62,79.19"
2024-05-28_13-18-43.066508,"55.86,66.34"
2024-05-28_13-18-43.099239,"92.56,95.69"
2024-05-28_13-18-43.132121,"92.08,67.33"
2024-05-28_13-18-43.164706,"85.27,86.37"
2024-05-28_13-18-43.193453,"76.68,79.86"
2024-05-28_13-18-43.226225,"85.44,70.24"
2024-05-28_13-18-43.258984,"76.49,79.30"
2024-05-28_13-18-43.291789,"85.07,71.74"
2024-05-28_13-18-43.324628,"90.32,69.94"
2024-05-28_13-18-43.359531,"101.09,52.26"
2024-05-28_13-18-43.389940,"79.72,53.27"
2024-05-28_13-18-43.418772,"62.60,74.08"
2024-05-28_13-18-43.451538,"104.49,86.99"
2024-05-28_13-18-43.484772,"90.53,72.23"
2024-05-28_13-18-43.517066,"83.37,92.46"
2024-05-28_13-18-43.549833,"63.23,83.05"
2024-05-28_13-18-43.582629,"89.04,79.39"
2024-05-28_13-18-43.615254,"89.06,82.91"
2024-05-28_13-18-43.643986,"63.05,69.67"
2024-05-28_13-18-43.676770,"89.52,81.18"
2024-05-28_13-18-43.709614,"90.62,56.92"
2024-05-28_13-18-43.742365,"80.18,77.57"
2024-05-28_13-18-43.775142,"69.82,84.15"
2024-05-28_13-18-43.807878,"91.54,75.63"
2024-05-28_13-18-43.840579,"96.28,87.09"
2024-05-28_13-18-43.869288,"76.13,64.63"
2024-05-28_13-18-43.902054,"82.95,81.68"
2024-05-28_13-18-43.934824,"88.11,78.24"
2024-05-28_13-18-43.967624,"77.65,68.05"
2024-05-28_13-18-44.000409,"82.39,80.31"
2024-05-28_13-18-44.033254,"84.45,71.49"
2024-05-28_13-18-44.065893,"107.79,54.56"
2024-05-28_13-18-44.094579,"87.14,69.53"
2024-05-28_13-18-44.127428,"54.65,76.14"
2024-05-28_13-18-44.160144,"96.66,102.89"
2024-05-28_13-18-44.192932,"97.69,76.75"
2024-05-28_13-18-44.225630,"80.80,78.45"
2024-05-28_13-18-44.258407,"81.13,79.33"
2024-05-28_13-18-44.297572,"87.98,71.81"
2024-05-28_13-18-44.324037,"93.11,65.78"
2024-05-28_13-18-44.352721,"93.97,77.47"
2024-05-28_13-18-44.385439,"99.40,55.16"
2024-05-28_13-18-44.418202,"93.32,52.45"
2024-05-28_13-18-44.450954,"82.63,65.62"
2024-05-28_13-18-44.483700,"68.06,85.76"
2024-05-28_13-18-44.516429,"93.10,91.77"
2024-05-28_13-18-44.549104,"84.63,71.08"
2024-05-28_13-18-44.577918,"80.39,80.36"
2024-05-28_13-18-44.610719,"84.53,72.81"
2024-05-28_13-18-44.643427,"80.39,82.08"
2024-05-28_13-18-44.676260,"86.80,80.64"
2024-05-28_13-18-44.709034,"85.30,68.10"
2024-05-28_13-18-44.741715,"80.60,68.43"
2024-05-28_13-18-44.774440,"92.11,56.73"
2024-05-28_13-18-44.803271,"73.38,72.44"
2024-05-28_13-18-44.836029,"75.79,72.91"
2024-05-28_13-18-44.873337,"90.64,84.99"
2024-05-28_13-18-44.901700,"61.18,67.12"
2024-05-28_13-18-44.934324,"97.91,95.85"
2024-05-28_13-18-44.967008,"73.64,72.72"
2024-05-28_13-18-44.999718,"89.44,78.20"
2024-05-28_13-18-45.028536,"81.05,70.96"
2024-05-28_13-18-45.061296,"81.74,78.09"
2024-05-28_13-18-45.094127,"95.91,57.59"
2024-05-28_13-18-45.126904,"94.15,54.60"
2024-05-28_13-18-45.159564,"75.51,70.96"
2024-05-28_13-18-45.192287,"84.41,87.75"
2024-05-28_13-18-45.241689,"84.77,81.52"
2024-05-28_13-18-45.254000,"81.03,79.82"
2024-05-28_13-18-45.287354,"70.95,82.72"
2024-05-28_13-18-45.321722,"56.52,84.21"
2024-05-28_13-18-45.352294,"92.25,71.18"
2024-05-28_13-18-45.384919,"93.61,61.78"
2024-05-28_13-18-45.417674,"87.67,81.71"
2024-05-28_13-18-45.450639,"85.06,68.36"
2024-05-28_13-18-45.479112,"93.66,68.86"
2024-05-28_13-18-45.511854,"73.83,91.25"
2024-05-28_13-18-45.544666,"84.43,80.73"
2024-05-28_13-18-45.577388,"86.61,83.69"
2024-05-28_13-18-45.610137,"92.01,80.14"
2024-05-28_13-18-45.642868,"84.87,77.99"
2024-05-28_13-18-45.675580,"83.86,83.72"
2024-05-28_13-18-45.704313,"74.43,70.11"
2024-05-28_13-18-45.737422,"86.29,80.07"
2024-05-28_13-18-45.769984,"87.50,68.08"
2024-05-28_13-18-45.802688,"103.43,56.78"
2024-05-28_13-18-45.835786,"96.29,55.45"
2024-05-28_13-18-45.868150,"63.22,85.77"
2024-05-28_13-18-45.900850,"77.23,89.94"
2024-05-28_13-18-45.929625,"85.93,84.68"
2024-05-28_13-18-45.962398,"99.53,77.99"
2024-05-28_13-18-45.995150,"83.58,79.46"
2024-05-28_13-18-46.027961,"77.46,69.76"
2024-05-28_13-18-46.060705,"84.37,78.72"
2024-05-28_13-18-46.093433,"80.84,70.50"
2024-05-28_13-18-46.126137,"87.56,81.76"
2024-05-28_13-18-46.154880,"87.50,81.78"
2024-05-28_13-18-46.187670,"100.14,52.27"
2024-05-28_13-18-46.220426,"72.54,58.58"
2024-05-28_13-18-46.253227,"89.50,89.40"
2024-05-28_13-18-46.285967,"97.17,83.39"
2024-05-28_13-18-46.318820,"71.69,72.21"
2024-05-28_13-18-46.351445,"75.91,74.52"
2024-05-28_13-18-46.380198,"87.08,75.02"
2024-05-28_13-18-46.412988,"79.06,83.45"
2024-05-28_13-18-46.445726,"75.17,70.59"
2024-05-28_13-18-46.478507,"88.65,81.66"
2024-05-28_13-18-46.511301,"84.64,71.97"
2024-05-28_13-18-46.544024,"97.16,46.19"
2024-05-28_13-18-46.576816,"71.09,76.05"
2024-05-28_13-18-46.605456,"78.86,79.89"
2024-05-28_13-18-46.638283,"95.37,82.35"
2024-05-28_13-18-46.670989,"99.97,81.35"
2024-05-28_13-18-46.703813,"84.10,85.66"
2024-05-28_13-18-46.736523,"83.64,77.66"
2024-05-28_13-18-46.769308,"84.68,68.83"
2024-05-28_13-18-46.802009,"81.85,81.03"
2024-05-28_13-18-46.830823,"84.58,72.17"
2024-05-28_13-18-46.863517,"85.80,83.19"
2024-05-28_13-18-46.896318,"102.79,52.80"
2024-05-28_13-18-46.929054,"68.75,76.79"
2024-05-28_13-18-46.961821,"77.31,90.63"
2024-05-28_13-18-46.994573,"96.73,92.30"
2024-05-28_13-18-47.027251,"75.06,68.30"
2024-05-28_13-18-47.056014,"86.26,78.95"
2024-05-28_13-18-47.088861,"78.27,72.50"
2024-05-28_13-18-47.121579,"85.38,76.76"
2024-05-28_13-18-47.154347,"92.52,84.11"
2024-05-28_13-18-47.187092,"74.43,69.84"
2024-05-28_13-18-47.219844,"88.55,82.47"
2024-05-28_13-18-47.252558,"96.86,56.34"
2024-05-28_13-18-47.285276,"71.05,46.98"
2024-05-28_13-18-47.314172,"87.58,92.11"
2024-05-28_13-18-47.346859,"96.88,74.10"
2024-05-28_13-18-47.379601,"73.01,83.28"
2024-05-28_13-18-47.412439,"78.12,76.49"
2024-05-28_13-18-47.445256,"89.90,82.68"
2024-05-28_13-18-47.477831,"82.95,79.87"
2024-05-28_13-18-47.510582,"83.86,68.25"
2024-05-28_13-18-47.539377,"82.96,81.41"
2024-05-28_13-18-47.572168,"101.23,71.88"
2024-05-28_13-18-47.604932,"85.53,54.39"
2024-05-28_13-18-47.637686,"66.05,93.02"
2024-05-28_13-18-47.670483,"93.50,78.60"
2024-05-28_13-18-47.703164,"103.01,84.26"
2024-05-28_13-18-47.735855,"94.25,79.44"
2024-05-28_13-18-47.764677,"80.20,72.48"
2024-05-28_13-18-47.797518,"93.19,82.31"
2024-05-28_13-18-47.830218,"89.28,72.67"
2024-05-28_13-18-47.862954,"81.25,76.88"
2024-05-28_13-18-47.896008,"94.46,84.74"
2024-05-28_13-18-47.928474,"95.00,55.50"
2024-05-28_13-18-47.961152,"92.87,52.76"
2024-05-28_13-18-47.989941,"64.85,73.06"
2024-05-28_13-18-48.022783,"93.04,79.15"
2024-05-28_13-18-48.055622,"98.98,87.81"
2024-05-28_13-18-48.088264,"90.40,79.09"
2024-05-28_13-18-48.121030,"74.49,78.12"
2024-05-28_13-18-48.153737,"84.46,71.86"
2024-05-28_13-18-48.186418,"83.27,80.14"
2024-05-28_13-18-48.215319,"88.47,81.83"
2024-05-28_13-18-48.248022,"88.99,68.88"
2024-05-28_13-18-48.280745,"98.20,50.42"
2024-05-28_13-18-48.313611,"82.33,53.23"
2024-05-28_13-18-48.346322,"76.97,84.27"
2024-05-28_13-18-48.379024,"88.06,89.71"
2024-05-28_13-18-48.411757,"88.10,72.53"
2024-05-28_13-18-48.440500,"93.62,86.09"
2024-05-28_13-18-48.473290,"106.11,89.46"
2024-05-28_13-18-48.506070,"78.62,71.83"
2024-05-28_13-18-48.538829,"94.00,81.94"
2024-05-28_13-18-48.571638,"92.69,62.35"
2024-05-28_13-18-48.604321,"80.30,49.68"
2024-05-28_13-18-48.637040,"104.85,55.89"
2024-05-28_13-18-48.665763,"73.27,58.45"
2024-05-28_13-18-48.698565,"70.57,77.19"
2024-05-28_13-18-48.731946,"97.53,80.89"
2024-05-28_13-18-48.764074,"86.09,95.65"
2024-05-28_13-18-48.796928,"81.68,79.86"
2024-05-28_13-18-48.829611,"72.77,71.71"
2024-05-28_13-18-48.862285,"81.61,78.82"
2024-05-28_13-18-48.891035,"78.32,71.35"
2024-05-28_13-18-48.923847,"88.56,82.17"
2024-05-28_13-18-48.956641,"89.32,68.85"
2024-05-28_13-18-48.989432,"88.57,52.24"
2024-05-28_13-18-49.022241,"77.62,51.07"
2024-05-28_13-18-49.054951,"78.16,83.14"
2024-05-28_13-18-49.087608,"91.15,76.75"
2024-05-28_13-18-49.117371,"82.17,81.96"
2024-05-28_13-18-49.154290,"83.18,81.03"
2024-05-28_13-18-49.185986,"73.58,68.74"
2024-05-28_13-18-49.216402,"94.66,63.75"
2024-05-28_13-18-49.257348,"82.49,56.93"
2024-05-28_13-18-49.280569,"87.76,69.36"
2024-05-28_13-18-49.312957,"91.54,58.73"
2024-05-28_13-18-49.341682,"92.33,66.25"
2024-05-28_13-18-49.374488,"81.89,79.73"
2024-05-28_13-18-49.407238,"79.13,78.62"
2024-05-28_13-18-49.440045,"83.01,85.05"
2024-05-28_13-18-49.472780,"83.65,90.82"
2024-05-28_13-18-49.505509,"80.91,85.81"
2024-05-28_13-18-49.538186,"79.24,78.54"
2024-05-28_13-18-49.566915,"78.17,69.32"
2024-05-28_13-18-49.599805,"80.25,79.57"
2024-05-28_13-18-49.632474,"83.88,71.30"
2024-05-28_13-18-49.665228,"86.53,69.64"
2024-05-28_13-18-49.698073,"108.92,52.77"
2024-05-28_13-18-49.730811,"68.59,79.86"
2024-05-28_13-18-49.763546,"75.33,84.17"
2024-05-28_13-18-49.792298,"98.50,86.57"
2024-05-28_13-18-49.825289,"92.02,71.97"
2024-05-28_13-18-49.857847,"76.15,93.97"
2024-05-28_13-18-49.892617,"82.33,75.96"
2024-05-28_13-18-49.923446,"94.28,68.82"
2024-05-28_13-18-49.956124,"90.80,64.17"
2024-05-28_13-18-49.988785,"103.30,66.80"
2024-05-28_13-18-50.021442,"88.49,70.19"
2024-05-28_13-18-50.050471,"100.87,55.82"
2024-05-28_13-18-50.083097,"61.06,68.36"
2024-05-28_13-18-50.116411,"92.20,83.54"
2024-05-28_13-18-50.148789,"95.54,82.22"
2024-05-28_13-18-50.181374,"89.40,77.17"
2024-05-28_13-18-50.214029,"91.53,80.59"
2024-05-28_13-18-50.246750,"84.21,82.27"
2024-05-28_13-18-50.275520,"81.31,78.68"
2024-05-28_13-18-50.308444,"86.93,70.00"
2024-05-28_13-18-50.341146,"83.41,80.92"
2024-05-28_13-18-50.373876,"83.74,56.47"
2024-05-28_13-18-50.406637,"99.22,54.68"
2024-05-28_13-18-50.439332,"72.78,57.39"
2024-05-28_13-18-50.472015,"76.50,77.48"
2024-05-28_13-18-50.500857,"91.06,89.90"
2024-05-28_13-18-50.533711,"102.16,86.87"
2024-05-28_13-18-50.566371,"83.83,76.82"
2024-05-28_13-18-50.599116,"82.06,79.22"
2024-05-28_13-18-50.631880,"77.00,71.49"
2024-05-28_13-18-50.664673,"77.14,64.79"
2024-05-28_13-18-50.697345,"98.38,62.49"
2024-05-28_13-18-50.726152,"82.40,60.75"
2024-05-28_13-18-50.758926,"83.58,82.67"
2024-05-28_13-18-50.791695,"76.63,72.84"
2024-05-28_13-18-50.824452,"82.81,79.80"
2024-05-28_13-18-50.857238,"71.90,81.50"
2024-05-28_13-18-50.889945,"82.87,76.72"
2024-05-28_13-18-50.922634,"87.66,88.93"
2024-05-28_13-18-50.951446,"83.46,74.14"
2024-05-28_13-18-50.984153,"90.83,83.52"
2024-05-28_13-18-51.016923,"86.15,69.18"
2024-05-28_13-18-51.049702,"91.11,69.33"
2024-05-28_13-18-51.082437,"77.38,60.32"
2024-05-28_13-18-51.115217,"111.30,74.07"
2024-05-28_13-18-51.147938,"65.58,69.77"
2024-05-28_13-18-51.176672,"89.28,89.92"
2024-05-28_13-18-51.209445,"82.31,83.35"
2024-05-28_13-18-51.242455,"76.18,82.39"
2024-05-28_13-18-51.275084,"70.53,97.03"
2024-05-28_13-18-51.307787,"68.71,81.30"
2024-05-28_13-18-51.340501,"86.46,83.10"
2024-05-28_13-18-51.373229,"82.62,71.85"
2024-05-28_13-18-51.401949,"84.71,64.57"
2024-05-28_13-18-51.434813,"90.62,62.78"
2024-05-28_13-18-51.467623,"75.34,84.76"
2024-05-28_13-18-51.500344,"73.67,74.03"
2024-05-28_13-18-51.533084,"91.04,76.68"
2024-05-28_13-18-51.565791,"87.92,92.22"
2024-05-28_13-18-51.598493,"96.07,74.68"
2024-05-28_13-18-51.627268,"86.05,78.24"
2024-05-28_13-18-51.660056,"85.90,80.98"
2024-05-28_13-18-51.692778,"83.60,72.61"
2024-05-28_13-18-51.725514,"83.69,71.76"
2024-05-28_13-18-51.758499,"92.42,69.06"
2024-05-28_13-18-51.791159,"76.40,72.00"
2024-05-28_13-18-51.823757,"98.28,60.82"
2024-05-28_13-18-51.852627,"82.37,61.00"
2024-05-28_13-18-51.885320,"77.97,88.89"
2024-05-28_13-18-51.918071,"95.20,86.21"
2024-05-28_13-18-51.950843,"83.17,66.20"
2024-05-28_13-18-51.983612,"81.68,78.90"
2024-05-28_13-18-52.016341,"80.60,84.03"
2024-05-28_13-18-52.049037,"74.81,70.94"
2024-05-28_13-18-52.077803,"86.00,79.40"
2024-05-28_13-18-52.110610,"86.65,71.38"
2024-05-28_13-18-52.143381,"80.97,64.73"
2024-05-28_13-18-52.176163,"109.69,56.95"
2024-05-28_13-18-52.208907,"60.93,78.63"
2024-05-28_13-18-52.241633,"75.29,79.40"
2024-05-28_13-18-52.274371,"101.46,88.85"
2024-05-28_13-18-52.303114,"79.16,75.57"
2024-05-28_13-18-52.335867,"76.77,78.72"
2024-05-28_13-18-52.368655,"82.55,70.66"
2024-05-28_13-18-52.401408,"75.31,78.86"
2024-05-28_13-18-52.434204,"83.71,71.37"
2024-05-28_13-18-52.466960,"89.69,82.56"
2024-05-28_13-18-52.499649,"86.12,68.88"
2024-05-28_13-18-52.528407,"90.41,52.66"
2024-05-28_13-18-52.561250,"68.28,70.49"
2024-05-28_13-18-52.594050,"94.37,89.11"
2024-05-28_13-18-52.626677,"95.58,77.73"
2024-05-28_13-18-52.659470,"87.92,83.51"
2024-05-28_13-18-52.692225,"78.25,74.18"
2024-05-28_13-18-52.725000,"88.90,75.74"
2024-05-28_13-18-52.753706,"83.27,84.43"
2024-05-28_13-18-52.786465,"75.33,69.59"
2024-05-28_13-18-52.819214,"89.83,81.63"
2024-05-28_13-18-52.853153,"92.40,79.21"
2024-05-28_13-18-52.884954,"80.04,67.39"
2024-05-28_13-18-52.917554,"89.35,85.67"
2024-05-28_13-18-52.950224,"91.42,83.49"
2024-05-28_13-18-52.982915,"73.75,82.49"
2024-05-28_13-18-53.011714,"72.58,66.38"
2024-05-28_13-18-53.047462,"90.35,83.34"
2024-05-28_13-18-53.077276,"73.86,79.40"
2024-05-28_13-18-53.110085,"102.59,63.64"
2024-05-28_13-18-53.142847,"79.91,82.02"
2024-05-28_13-18-53.175686,"84.41,71.63"
2024-05-28_13-18-53.208235,"89.56,85.11"
2024-05-28_13-18-53.237050,"87.09,95.29"
2024-05-28_13-18-53.269804,"58.49,54.69"
2024-05-28_13-18-53.302550,"94.59,90.25"
2024-05-28_13-18-53.335315,"102.04,87.99"
2024-05-28_13-18-53.368104,"75.30,80.88"
2024-05-28_13-18-53.400780,"78.46,79.70"
2024-05-28_13-18-53.433495,"83.51,71.64"
2024-05-28_13-18-53.462341,"75.81,75.92"
2024-05-28_13-18-53.495148,"94.23,83.64"
2024-05-28_13-18-53.527842,"78.41,70.72"
2024-05-28_13-18-53.560583,"89.17,68.55"
2024-05-28_13-18-53.593367,"97.44,56.33"
2024-05-28_13-18-53.626062,"74.14,70.84"
2024-05-28_13-18-53.658774,"89.35,90.19"
2024-05-28_13-18-53.687571,"89.59,84.04"
2024-05-28_13-18-53.720351,"71.02,71.08"
2024-05-28_13-18-53.753140,"74.55,74.70"
2024-05-28_13-18-53.785902,"86.93,81.90"
2024-05-28_13-18-53.818699,"80.29,79.01"
2024-05-28_13-18-53.851387,"83.28,67.73"
2024-05-28_13-18-53.884066,"82.19,81.50"
2024-05-28_13-18-53.912871,"84.74,72.27"
2024-05-28_13-18-53.945610,"95.87,54.16"
2024-05-28_13-18-53.978386,"75.25,57.33"
2024-05-28_13-18-54.011159,"74.65,77.73"
2024-05-28_13-18-54.043956,"102.21,91.00"
2024-05-28_13-18-54.076641,"82.94,73.12"
2024-05-28_13-18-54.109358,"75.83,75.18"
2024-05-28_13-18-54.138131,"82.34,77.41"
2024-05-28_13-18-54.170943,"79.37,71.42"
2024-05-28_13-18-54.203673,"81.58,77.00"
2024-05-28_13-18-54.236437,"94.43,84.37"
2024-05-28_13-18-54.269235,"76.13,69.87"
2024-05-28_13-18-54.301923,"97.40,51.52"
2024-05-28_13-18-54.334662,"72.85,55.06"
2024-05-28_13-18-54.363451,"77.44,75.32"
2024-05-28_13-18-54.396213,"91.47,90.39"
2024-05-28_13-18-54.428996,"93.75,89.43"
2024-05-28_13-18-54.461724,"79.73,80.56"
2024-05-28_13-18-54.494519,"73.57,73.70"
2024-05-28_13-18-54.527233,"86.16,81.79"
2024-05-28_13-18-54.559946,"87.27,80.16"
2024-05-28_13-18-54.588690,"84.66,67.97"
2024-05-28_13-18-54.621514,"83.07,81.67"
2024-05-28_13-18-54.654243,"103.73,55.90"
2024-05-28_13-18-54.687005,"73.95,79.38"
2024-05-28_13-18-54.719801,"75.17,72.40"
2024-05-28_13-18-54.752526,"91.31,72.10"
2024-05-28_13-18-54.823016,"94.20,91.25"
2024-05-28_13-18-54.841931,"86.63,105.07"
2024-05-28_13-18-54.870902,"60.78,67.90"
2024-05-28_13-18-54.880532,"82.07,82.13"
2024-05-28_13-18-54.912422,"99.26,71.33"
2024-05-28_13-18-54.945124,"89.32,55.56"
2024-05-28_13-18-54.977784,"93.81,71.90"
2024-05-28_13-18-55.010501,"81.50,54.89"
2024-05-28_13-18-55.039317,"92.99,68.92"
2024-05-28_13-18-55.072055,"63.77,89.37"
2024-05-28_13-18-55.104813,"95.90,80.38"
2024-05-28_13-18-55.137608,"90.20,88.19"
2024-05-28_13-18-55.170363,"80.01,77.30"
2024-05-28_13-18-55.203103,"75.25,77.74"
2024-05-28_13-18-55.235827,"83.54,71.89"
2024-05-28_13-18-55.264535,"82.62,80.35"
2024-05-28_13-18-55.297394,"87.11,81.05"
2024-05-28_13-18-55.330089,"85.80,68.36"
2024-05-28_13-18-55.362922,"89.39,50.50"
2024-05-28_13-18-55.395919,"86.56,52.12"
2024-05-28_13-18-55.428445,"60.77,71.61"
2024-05-28_13-18-55.461076,"94.70,91.57"
2024-05-28_13-18-55.489872,"94.03,77.32"
2024-05-28_13-18-55.522809,"75.53,82.45"
2024-05-28_13-18-55.555426,"87.68,87.40"
2024-05-28_13-18-55.588207,"79.89,70.92"
2024-05-28_13-18-55.621008,"84.09,79.84"
2024-05-28_13-18-55.653693,"85.66,71.75"
2024-05-28_13-18-55.686385,"81.11,78.13"
2024-05-28_13-18-55.719134,"109.29,71.64"
2024-05-28_13-18-55.747887,"81.53,56.96"
2024-05-28_13-18-55.780700,"68.38,93.33"
2024-05-28_13-18-55.813453,"97.05,88.92"
2024-05-28_13-18-55.846182,"72.75,74.61"
2024-05-28_13-18-55.879434,"90.47,82.24"
2024-05-28_13-18-55.912013,"70.80,74.13"
2024-05-28_13-18-55.940650,"64.42,85.56"
2024-05-28_13-18-55.973233,"94.04,61.36"
2024-05-28_13-18-56.006022,"84.79,82.72"
2024-05-28_13-18-56.038774,"88.49,81.10"
2024-05-28_13-18-56.071539,"86.45,68.92"
2024-05-28_13-18-56.104482,"100.10,51.42"
2024-05-28_13-18-56.137004,"71.12,85.36"
2024-05-28_13-18-56.165735,"83.61,79.59"
2024-05-28_13-18-56.198519,"87.76,83.74"
2024-05-28_13-18-56.231228,"90.64,80.79"
2024-05-28_13-18-56.263974,"86.20,79.38"
2024-05-28_13-18-56.296758,"81.56,83.76"
2024-05-28_13-18-56.329556,"72.88,70.61"
2024-05-28_13-18-56.362244,"88.51,80.11"
2024-05-28_13-18-56.390956,"86.00,71.88"
2024-05-28_13-18-56.423736,"80.53,77.86"
2024-05-28_13-18-56.456553,"112.60,55.97"
2024-05-28_13-18-56.489291,"67.50,83.00"
2024-05-28_13-18-56.522227,"75.11,73.76"
2024-05-28_13-18-56.554903,"94.14,84.23"
2024-05-28_13-18-56.587517,"95.91,86.90"
2024-05-28_13-18-56.616255,"83.02,77.54"
2024-05-28_13-18-56.649020,"76.23,72.48"
2024-05-28_13-18-56.681845,"83.61,79.36"
2024-05-28_13-18-56.714577,"77.33,70.88"
2024-05-28_13-18-56.747392,"88.52,82.51"
2024-05-28_13-18-56.780114,"90.62,82.43"
2024-05-28_13-18-56.812867,"94.39,52.10"
2024-05-28_13-18-56.845530,"75.22,52.16"
2024-05-28_13-18-56.874333,"73.61,92.89"
2024-05-28_13-18-56.907136,"90.97,81.08"
2024-05-28_13-18-56.939860,"92.09,74.90"
2024-05-28_13-18-56.972721,"83.76,78.22"
2024-05-28_13-18-57.005401,"81.93,76.48"
2024-05-28_13-18-57.038121,"86.26,83.60"
2024-05-28_13-18-57.070810,"73.49,70.45"
2024-05-28_13-18-57.099634,"88.70,79.98"
2024-05-28_13-18-57.132401,"84.45,71.74"
2024-05-28_13-18-57.165131,"97.43,63.75"
2024-05-28_13-18-57.197896,"93.61,86.49"
2024-05-28_13-18-57.230675,"51.68,59.27"
2024-05-28_13-18-57.263376,"97.80,86.08"
2024-05-28_13-18-57.296183,"101.83,79.03"
2024-05-28_13-18-57.324935,"91.98,88.20"
2024-05-28_13-18-57.357719,"64.96,81.19"
2024-05-28_13-18-57.390529,"90.77,73.59"
2024-05-28_13-18-57.423249,"74.69,80.54"
2024-05-28_13-18-57.456034,"81.00,71.46"
2024-05-28_13-18-57.488683,"88.61,82.59"
2024-05-28_13-18-57.521383,"104.62,51.86"
2024-05-28_13-18-57.550209,"85.61,52.28"
2024-05-28_13-18-57.582949,"62.13,75.50"
2024-05-28_13-18-57.615683,"92.72,93.23"
2024-05-28_13-18-57.648495,"81.56,67.74"
2024-05-28_13-18-57.681235,"91.04,82.82"
2024-05-28_13-18-57.713939,"81.77,75.49"
2024-05-28_13-18-57.746637,"90.83,75.75"
2024-05-28_13-18-57.775431,"85.08,82.95"
2024-05-28_13-18-57.808201,"77.09,70.10"
2024-05-28_13-18-57.840958,"91.44,82.56"
2024-05-28_13-18-57.873765,"94.46,56.03"
2024-05-28_13-18-57.906542,"97.67,47.75"
2024-05-28_13-18-57.939230,"65.38,78.74"
2024-05-28_13-18-57.972002,"93.57,82.32"
2024-05-28_13-18-58.000791,"91.50,85.95"
2024-05-28_13-18-58.033574,"94.24,70.63"
2024-05-28_13-18-58.066721,"87.43,84.11"
2024-05-28_13-18-58.099128,"91.77,81.43"
2024-05-28_13-18-58.131862,"86.46,69.26"
2024-05-28_13-18-58.164578,"81.45,79.81"
2024-05-28_13-18-58.197229,"84.43,71.47"
2024-05-28_13-18-58.226017,"97.08,83.59"
2024-05-28_13-18-58.258772,"99.00,51.28"
2024-05-28_13-18-58.291603,"63.47,76.47"
2024-05-28_13-18-58.324328,"78.28,87.32"
2024-05-28_13-18-58.357087,"99.99,91.17"
2024-05-28_13-18-58.389832,"82.05,69.91"
2024-05-28_13-18-58.422609,"85.69,81.71"
2024-05-28_13-18-58.451312,"76.73,72.92"
2024-05-28_13-18-58.484070,"84.02,76.08"
2024-05-28_13-18-58.516842,"89.77,83.57"
2024-05-28_13-18-58.549642,"77.26,70.47"
2024-05-28_13-18-58.582385,"89.40,68.72"
2024-05-28_13-18-58.615179,"101.22,55.88"
2024-05-28_13-18-58.647821,"76.59,71.62"
2024-05-28_13-18-58.676623,"73.62,92.19"
2024-05-28_13-18-58.709408,"91.63,82.55"
2024-05-28_13-18-58.742169,"82.53,72.41"
2024-05-28_13-18-58.774972,"78.53,77.65"
2024-05-28_13-18-58.807720,"82.16,84.18"
2024-05-28_13-18-58.840396,"86.13,80.44"
2024-05-28_13-18-58.873132,"80.67,68.04"
2024-05-28_13-18-58.901839,"82.14,80.88"
2024-05-28_13-18-58.934647,"84.37,71.61"
2024-05-28_13-18-58.967419,"107.04,69.80"
2024-05-28_13-18-59.000206,"86.24,69.35"
2024-05-28_13-18-59.033053,"57.46,57.64"
2024-05-28_13-18-59.065763,"98.75,89.04"
2024-05-28_13-18-59.098427,"93.31,73.66"
2024-05-28_13-18-59.127142,"82.80,77.59"
2024-05-28_13-18-59.159939,"79.83,76.93"
2024-05-28_13-18-59.192682,"86.00,72.10"
2024-05-28_13-18-59.225470,"76.69,77.06"
2024-05-28_13-18-59.258247,"94.59,84.08"
2024-05-28_13-18-59.290983,"77.34,69.81"
2024-05-28_13-18-59.323721,"95.80,68.89"
2024-05-28_13-18-59.356418,"84.67,65.82"
2024-05-28_13-18-59.385228,"61.92,70.81"
2024-05-28_13-18-59.417946,"92.54,95.54"
2024-05-28_13-18-59.450752,"81.33,67.52"
2024-05-28_13-18-59.483499,"75.90,81.85"
2024-05-28_13-18-59.516250,"80.11,72.98"
2024-05-28_13-18-59.549010,"92.93,81.73"
2024-05-28_13-18-59.581686,"83.27,79.10"
2024-05-28_13-18-59.610471,"82.66,68.01"
2024-05-28_13-18-59.643264,"81.98,80.54"
2024-05-28_13-18-59.676030,"102.11,55.01"
2024-05-28_13-18-59.708817,"88.07,53.86"
2024-05-28_13-18-59.741577,"66.79,81.89"
2024-05-28_13-18-59.774294,"81.89,83.14"
2024-05-28_13-18-59.806996,"102.16,81.96"
2024-05-28_13-18-59.835759,"82.48,79.32"
2024-05-28_13-18-59.868547,"78.10,75.00"
2024-05-28_13-18-59.901355,"83.39,78.15"
2024-05-28_13-18-59.934136,"82.60,72.13"
2024-05-28_13-18-59.966913,"82.06,64.03"
2024-05-28_13-18-59.999597,"94.83,84.45"
2024-05-28_13-19-00.032290,"87.70,54.51"
2024-05-28_13-19-00.061083,"100.96,53.79"
2024-05-28_13-19-00.094054,"69.42,82.23"
2024-05-28_13-19-00.126745,"80.44,72.33"
2024-05-28_13-19-00.159386,"92.52,88.52"
2024-05-28_13-19-00.192118,"83.02,79.90"
2024-05-28_13-19-00.224856,"81.92,78.57"
2024-05-28_13-19-00.257555,"71.96,72.41"
2024-05-28_13-19-00.286346,"73.74,81.41"
2024-05-28_13-19-00.319277,"87.71,80.27"
2024-05-28_13-19-00.351927,"90.56,56.03"
2024-05-28_13-19-00.384695,"84.50,54.77"
2024-05-28_13-19-00.417425,"94.20,56.42"
2024-05-28_13-19-00.450149,"78.25,55.67"
2024-05-28_13-19-00.482835,"69.19,74.68"
2024-05-28_13-19-00.511620,"92.59,76.11"
2024-05-28_13-19-00.544433,"94.32,85.63"
2024-05-28_13-19-00.577195,"83.20,79.89"
2024-05-28_13-19-00.609932,"67.33,74.31"
2024-05-28_13-19-00.642736,"85.52,78.04"
2024-05-28_13-19-00.675428,"84.85,71.66"
2024-05-28_13-19-00.708145,"81.57,77.36"
2024-05-28_13-19-00.736903,"93.76,83.57"
2024-05-28_13-19-00.769686,"83.95,54.47"
2024-05-28_13-19-00.802436,"98.37,51.93"
2024-05-28_13-19-00.835218,"63.39,90.37"
2024-05-28_13-19-00.867986,"95.89,85.59"
2024-05-28_13-19-00.900742,"92.75,86.09"
2024-05-28_13-19-00.987184,"87.65,66.93"
2024-05-28_13-19-00.990903,"89.74,82.85"
2024-05-28_13-19-01.000115,"93.62,76.85"
2024-05-28_13-19-01.027925,"83.67,83.37"
2024-05-28_13-19-01.060636,"95.26,59.24"
2024-05-28_13-19-01.093329,"84.40,69.06"
2024-05-28_13-19-01.126034,"82.21,81.77"
2024-05-28_13-19-01.158761,"111.47,56.77"
2024-05-28_13-19-01.187502,"73.11,83.79"
2024-05-28_13-19-01.220267,"67.21,79.36"
2024-05-28_13-19-01.253022,"89.66,73.08"
2024-05-28_13-19-01.285872,"103.35,83.49"
2024-05-28_13-19-01.318546,"87.30,88.94"
2024-05-28_13-19-01.351295,"69.22,72.24"
2024-05-28_13-19-01.384025,"88.43,78.48"
2024-05-28_13-19-01.412855,"77.48,71.62"
2024-05-28_13-19-01.445575,"83.11,76.07"
2024-05-28_13-19-01.478317,"95.24,84.90"
2024-05-28_13-19-01.511025,"86.26,55.20"
2024-05-28_13-19-01.543850,"98.06,51.35"
2024-05-28_13-19-01.576565,"63.69,88.32"
2024-05-28_13-19-01.609282,"82.30,86.36"
2024-05-28_13-19-01.638053,"93.41,83.81"
2024-05-28_13-19-01.670801,"84.80,69.09"
2024-05-28_13-19-01.703574,"84.85,79.52"
2024-05-28_13-19-01.736328,"74.16,72.02"
2024-05-28_13-19-01.769197,"83.89,81.32"
2024-05-28_13-19-01.801863,"88.35,80.06"
2024-05-28_13-19-01.834576,"86.42,68.08"
2024-05-28_13-19-01.863340,"79.98,80.72"
2024-05-28_13-19-01.896116,"95.59,56.09"
2024-05-28_13-19-01.928842,"80.57,55.35"
2024-05-28_13-19-01.961617,"68.46,72.20"
2024-05-28_13-19-01.994416,"92.10,74.79"
2024-05-28_13-19-02.027210,"93.45,89.35"
2024-05-28_13-19-02.059863,"92.74,78.86"
2024-05-28_13-19-02.088659,"79.26,74.16"
2024-05-28_13-19-02.121450,"84.22,79.56"
2024-05-28_13-19-02.154715,"83.63,71.57"
2024-05-28_13-19-02.186956,"80.92,77.73"
2024-05-28_13-19-02.219744,"98.14,71.49"
2024-05-28_13-19-02.252501,"79.67,59.54"
2024-05-28_13-19-02.285144,"88.50,91.17"
2024-05-28_13-19-02.313906,"64.56,91.80"
2024-05-28_13-19-02.346705,"83.80,81.45"
2024-05-28_13-19-02.379427,"96.30,91.37"
2024-05-28_13-19-02.412294,"85.84,68.58"
2024-05-28_13-19-02.445214,"85.15,80.40"
2024-05-28_13-19-02.478294,"91.91,76.87"
2024-05-28_13-19-02.510601,"95.47,65.38"
2024-05-28_13-19-02.543154,"106.44,50.38"
2024-05-28_13-19-02.572096,"83.17,68.69"
2024-05-28_13-19-02.604795,"81.80,80.97"
2024-05-28_13-19-02.637571,"108.30,56.67"
2024-05-28_13-19-02.670280,"68.57,59.65"
2024-05-28_13-19-02.703104,"76.00,88.31"
2024-05-28_13-19-02.735729,"87.69,82.35"
2024-05-28_13-19-02.768468,"102.30,73.17"
2024-05-28_13-19-02.797299,"90.89,87.82"
2024-05-28_13-19-02.830016,"72.48,73.23"
2024-05-28_13-19-02.862774,"79.05,78.83"
2024-05-28_13-19-02.895590,"80.06,70.94"
2024-05-28_13-19-02.928321,"81.11,78.08"
2024-05-28_13-19-02.960995,"93.93,72.34"
2024-05-28_13-19-02.993735,"77.01,54.51"
2024-05-28_13-19-03.022577,"89.48,53.37"
2024-05-28_13-19-03.055328,"66.44,88.42"
2024-05-28_13-19-03.088081,"91.78,81.60"
2024-05-28_13-19-03.120840,"88.85,87.45"
2024-05-28_13-19-03.153622,"78.56,78.80"
2024-05-28_13-19-03.186302,"84.69,78.57"
2024-05-28_13-19-03.219006,"77.93,72.23"
2024-05-28_13-19-03.247776,"91.86,81.59"
2024-05-28_13-19-03.280686,"87.68,81.02"
2024-05-28_13-19-03.313348,"86.70,68.00"
2024-05-28_13-19-03.346118,"80.58,51.64"
2024-05-28_13-19-03.378897,"103.02,57.20"
2024-05-28_13-19-03.411609,"65.22,63.86"
2024-05-28_13-19-03.444274,"94.74,89.92"
2024-05-28_13-19-03.473136,"86.51,77.96"
2024-05-28_13-19-03.505927,"87.41,76.34"
2024-05-28_13-19-03.538730,"105.70,92.22"
2024-05-28_13-19-03.571542,"79.42,76.44"
2024-05-28_13-19-03.604293,"95.53,82.66"
2024-05-28_13-19-03.637058,"89.16,70.25"
2024-05-28_13-19-03.669676,"84.96,65.95"
2024-05-28_13-19-03.698497,"85.93,76.50"
2024-05-28_13-19-03.731242,"92.16,77.27"
2024-05-28_13-19-03.764050,"91.18,68.47"
2024-05-28_13-19-03.796746,"70.15,61.87"
2024-05-28_13-19-03.829586,"93.75,73.42"
2024-05-28_13-19-03.862220,"89.44,84.14"
2024-05-28_13-19-03.894963,"81.17,71.38"
2024-05-28_13-19-03.923757,"96.89,84.74"
2024-05-28_13-19-03.956458,"84.08,75.97"
2024-05-28_13-19-03.989194,"83.78,82.00"
2024-05-28_13-19-04.022011,"84.38,79.56"
2024-05-28_13-19-04.054735,"84.92,68.08"
2024-05-28_13-19-04.087458,"82.63,67.56"
2024-05-28_13-19-04.120172,"107.29,55.61"
2024-05-28_13-19-04.149003,"78.05,55.43"
2024-05-28_13-19-04.181766,"73.76,70.76"
2024-05-28_13-19-04.214550,"86.98,75.69"
2024-05-28_13-19-04.247390,"98.29,85.68"
2024-05-28_13-19-04.280091,"93.77,93.90"
2024-05-28_13-19-04.312773,"61.69,74.20"
2024-05-28_13-19-04.345474,"89.44,83.33"
2024-05-28_13-19-04.374276,"86.74,71.72"
2024-05-28_13-19-04.407050,"85.13,74.41"
2024-05-28_13-19-04.439826,"95.61,73.40"
2024-05-28_13-19-04.472567,"86.15,56.20"
2024-05-28_13-19-04.505377,"101.24,77.93"
2024-05-28_13-19-04.538075,"63.06,77.09"
2024-05-28_13-19-04.570760,"81.25,65.36"
2024-05-28_13-19-04.599572,"94.91,81.23"
2024-05-28_13-19-04.632309,"75.23,68.67"
2024-05-28_13-19-04.665160,"91.61,82.26"
2024-05-28_13-19-04.697891,"75.50,74.66"
2024-05-28_13-19-04.730658,"89.92,81.98"
2024-05-28_13-19-04.763373,"87.28,80.10"
2024-05-28_13-19-04.796034,"87.35,68.35"
2024-05-28_13-19-04.824794,"81.28,68.82"
2024-05-28_13-19-04.857576,"104.14,56.27"
2024-05-28_13-19-04.890409,"65.10,57.49"
2024-05-28_13-19-04.923189,"91.41,87.75"
2024-05-28_13-19-04.955987,"86.03,81.59"
2024-05-28_13-19-04.988665,"89.23,76.95"
2024-05-28_13-19-05.021311,"94.60,87.11"
2024-05-28_13-19-05.050087,"73.68,71.49"
2024-05-28_13-19-05.082832,"89.93,78.87"
2024-05-28_13-19-05.115619,"82.42,71.88"
2024-05-28_13-19-05.148401,"81.21,77.52"
2024-05-28_13-19-05.181139,"94.33,71.80"
2024-05-28_13-19-05.214021,"99.83,55.64"
2024-05-28_13-19-05.246622,"78.97,51.76"
2024-05-28_13-19-05.279320,"68.18,81.03"
2024-05-28_13-19-05.308108,"96.13,87.17"
2024-05-28_13-19-05.340900,"81.43,72.11"
2024-05-28_13-19-05.373663,"82.48,76.76"
2024-05-28_13-19-05.406511,"76.61,79.30"
2024-05-28_13-19-05.439187,"83.33,72.22"
2024-05-28_13-19-05.471918,"81.54,81.42"
2024-05-28_13-19-05.504603,"86.85,81.22"
2024-05-28_13-19-05.533416,"85.53,69.04"
2024-05-28_13-19-05.566207,"81.07,67.63"
2024-05-28_13-19-05.598927,"98.32,56.64"
2024-05-28_13-19-05.631744,"65.22,59.21"
2024-05-28_13-19-05.664524,"90.86,86.77"
2024-05-28_13-19-05.697190,"87.12,77.90"
2024-05-28_13-19-05.729901,"71.27,69.82"
2024-05-28_13-19-05.758688,"95.63,84.53"
2024-05-28_13-19-05.791465,"75.95,71.74"
2024-05-28_13-19-05.824228,"80.60,79.41"
2024-05-28_13-19-05.856994,"79.59,70.98"
2024-05-28_13-19-05.889909,"80.38,77.32"
2024-05-28_13-19-05.922485,"94.92,71.90"
2024-05-28_13-19-05.955201,"93.44,54.59"
2024-05-28_13-19-05.984002,"78.79,79.96"
2024-05-28_13-19-06.016758,"81.81,86.05"
2024-05-28_13-19-06.049516,"93.70,87.72"
2024-05-28_13-19-06.082347,"80.45,70.03"
2024-05-28_13-19-06.128436,"77.81,74.90"
2024-05-28_13-19-06.147937,"59.44,91.13"
2024-05-28_13-19-06.180510,"85.69,75.37"
2024-05-28_13-19-06.209305,"83.20,70.19"
2024-05-28_13-19-06.242104,"60.91,80.01"
2024-05-28_13-19-06.274793,"84.54,68.23"
2024-05-28_13-19-06.307632,"91.77,51.25"
2024-05-28_13-19-06.340362,"71.80,80.80"
2024-05-28_13-19-06.373111,"78.09,81.50"
2024-05-28_13-19-06.405800,"93.01,80.53"
2024-05-28_13-19-06.434740,"92.37,89.48"
2024-05-28_13-19-06.467372,"82.59,82.47"
2024-05-28_13-19-06.500186,"98.46,86.01"
2024-05-28_13-19-06.532845,"84.71,70.96"
2024-05-28_13-19-06.565646,"74.71,79.14"
2024-05-28_13-19-06.598351,"84.61,71.63"
2024-05-28_13-19-06.631103,"81.66,77.81"
2024-05-28_13-19-06.659832,"102.51,55.84"
2024-05-28_13-19-06.692605,"74.11,56.53"
2024-05-28_13-19-06.725386,"65.98,77.05"
2024-05-28_13-19-06.758160,"93.25,83.96"
2024-05-28_13-19-06.790894,"87.13,78.90"
2024-05-28_13-19-06.823644,"84.01,77.85"
2024-05-28_13-19-06.856399,"86.64,72.57"
2024-05-28_13-19-06.885272,"88.85,80.67"
2024-05-28_13-19-06.917923,"83.31,72.00"
2024-05-28_13-19-06.950650,"71.20,81.89"
2024-05-28_13-19-06.983415,"88.27,81.34"
2024-05-28_13-19-07.016211,"92.48,68.60"
2024-05-28_13-19-07.048966,"97.96,52.16"
2024-05-28_13-19-07.081605,"68.80,81.27"
2024-05-28_13-19-07.110419,"80.55,84.43"
2024-05-28_13-19-07.143315,"85.03,80.38"
2024-05-28_13-19-07.176199,"84.71,72.90"
2024-05-28_13-19-07.208746,"54.38,65.37"
2024-05-28_13-19-07.241473,"75.67,89.91"
2024-05-28_13-19-07.274250,"63.40,70.38"
2024-05-28_13-19-07.306921,"87.23,79.49"
2024-05-28_13-19-07.335756,"83.43,71.25"
2024-05-28_13-19-07.368467,"81.44,78.62"
2024-05-28_13-19-07.401240,"104.81,56.87"
2024-05-28_13-19-07.433976,"57.41,57.80"
2024-05-28_13-19-07.466717,"75.30,90.20"
2024-05-28_13-19-07.499573,"95.38,88.71"
2024-05-28_13-19-07.532233,"97.78,77.58"
2024-05-28_13-19-07.561355,"85.76,79.98"
2024-05-28_13-19-07.593735,"79.23,71.16"
2024-05-28_13-19-07.626505,"84.06,79.21"
2024-05-28_13-19-07.659280,"80.52,71.77"
2024-05-28_13-19-07.692019,"88.61,83.10"
2024-05-28_13-19-07.724780,"88.39,68.78"
2024-05-28_13-19-07.757527,"100.87,52.85"
2024-05-28_13-19-07.786335,"72.55,70.10"
2024-05-28_13-19-07.818996,"91.50,91.68"
2024-05-28_13-19-07.851794,"89.29,84.22"
2024-05-28_13-19-07.884583,"83.07,71.66"
2024-05-28_13-19-07.917332,"81.45,76.36"
2024-05-28_13-19-07.950108,"83.36,76.70"
2024-05-28_13-19-07.982799,"89.68,84.22"
2024-05-28_13-19-08.015507,"71.68,69.78"
2024-05-28_13-19-08.044460,"88.00,80.65"
2024-05-28_13-19-08.077068,"87.68,72.87"
2024-05-28_13-19-08.109903,"104.69,45.47"
2024-05-28_13-19-08.142699,"85.32,79.28"
2024-05-28_13-19-08.175445,"76.54,64.61"
2024-05-28_13-19-08.208109,"82.36,83.30"
2024-05-28_13-19-08.240869,"90.92,72.15"
2024-05-28_13-19-08.269628,"81.79,84.60"
2024-05-28_13-19-08.302367,"78.75,78.15"
2024-05-28_13-19-08.335150,"85.31,68.73"
2024-05-28_13-19-08.367915,"78.16,79.56"
2024-05-28_13-19-08.400648,"83.74,70.38"
2024-05-28_13-19-08.433398,"87.36,82.39"
2024-05-28_13-19-08.466088,"103.04,52.81"
2024-05-28_13-19-08.494858,"82.16,52.79"
2024-05-28_13-19-08.527662,"66.49,88.19"
2024-05-28_13-19-08.560428,"92.95,90.44"
2024-05-28_13-19-08.593168,"94.26,69.73"
2024-05-28_13-19-08.625964,"80.47,81.68"
2024-05-28_13-19-08.658682,"81.42,73.03"
2024-05-28_13-19-08.691386,"92.53,75.70"
2024-05-28_13-19-08.720168,"85.55,82.79"
2024-05-28_13-19-08.752912,"76.18,70.06"
2024-05-28_13-19-08.785692,"89.52,81.04"
2024-05-28_13-19-08.818476,"88.90,55.92"
2024-05-28_13-19-08.851310,"91.42,47.06"
2024-05-28_13-19-08.883942,"68.54,93.59"
2024-05-28_13-19-08.916710,"95.27,79.44"
2024-05-28_13-19-08.945452,"84.76,82.53"
2024-05-28_13-19-08.978227,"71.03,67.63"
2024-05-28_13-19-09.011016,"87.67,85.72"
2024-05-28_13-19-09.043768,"82.99,79.46"
2024-05-28_13-19-09.076560,"84.76,68.69"
2024-05-28_13-19-09.109297,"81.33,80.96"
2024-05-28_13-19-09.141946,"83.97,71.36"
2024-05-28_13-19-09.170730,"95.80,82.59"
2024-05-28_13-19-09.203505,"94.88,53.06"
2024-05-28_13-19-09.236387,"59.08,58.38"
2024-05-28_13-19-09.269074,"93.64,88.35"
2024-05-28_13-19-09.301808,"104.62,92.36"
2024-05-28_13-19-09.334557,"74.97,67.98"
2024-05-28_13-19-09.367289,"88.72,77.54"
2024-05-28_13-19-09.396000,"79.78,71.84"
2024-05-28_13-19-09.428798,"86.23,76.07"
2024-05-28_13-19-09.461549,"92.85,83.91"
2024-05-28_13-19-09.494351,"76.74,70.00"
2024-05-28_13-19-09.527117,"88.50,69.08"
2024-05-28_13-19-09.559895,"95.15,56.40"
2024-05-28_13-19-09.592555,"71.38,50.43"
2024-05-28_13-19-09.621327,"91.47,91.64"
2024-05-28_13-19-09.654048,"98.15,80.96"
2024-05-28_13-19-09.686915,"82.10,72.68"
2024-05-28_13-19-09.719674,"93.45,80.68"
2024-05-28_13-19-09.752420,"82.63,83.83"
2024-05-28_13-19-09.785117,"89.44,78.97"
2024-05-28_13-19-09.817823,"82.89,68.22"
2024-05-28_13-19-09.846630,"83.35,81.06"
2024-05-28_13-19-09.879449,"79.31,74.33"
2024-05-28_13-19-09.912172,"97.17,54.47"
2024-05-28_13-19-09.944906,"75.60,72.10"
2024-05-28_13-19-09.977679,"87.74,78.95"
2024-05-28_13-19-10.010507,"77.67,74.72"
2024-05-28_13-19-10.043125,"89.59,78.71"
2024-05-28_13-19-10.075835,"86.17,73.95"
2024-05-28_13-19-10.104646,"82.29,77.88"
2024-05-28_13-19-10.137406,"79.61,72.26"
2024-05-28_13-19-10.170162,"81.50,76.41"
2024-05-28_13-19-10.202998,"99.70,71.31"
2024-05-28_13-19-10.235787,"79.63,55.55"
2024-05-28_13-19-10.268436,"105.32,52.66"
2024-05-28_13-19-10.301079,"67.72,70.74"
2024-05-28_13-19-10.329898,"77.20,75.27"
2024-05-28_13-19-10.362943,"92.58,87.67"
2024-05-28_13-19-10.395570,"83.71,81.46"
2024-05-28_13-19-10.428250,"87.42,93.61"
2024-05-28_13-19-10.461051,"67.85,75.53"
2024-05-28_13-19-10.493673,"93.25,80.69"
2024-05-28_13-19-10.526387,"85.37,79.70"
2024-05-28_13-19-10.555198,"85.65,67.99"
2024-05-28_13-19-10.587980,"82.65,81.35"
2024-05-28_13-19-10.620705,"98.19,55.70"
2024-05-28_13-19-10.653565,"77.08,84.37"
2024-05-28_13-19-10.686302,"71.17,81.28"
2024-05-28_13-19-10.718973,"92.80,74.46"
2024-05-28_13-19-10.751710,"94.60,89.66"
2024-05-28_13-19-10.780494,"88.30,88.26"
2024-05-28_13-19-10.813280,"82.28,72.20"
2024-05-28_13-19-10.846003,"85.58,79.11"
2024-05-28_13-19-10.878823,"88.19,71.34"
2024-05-28_13-19-10.911997,"81.83,77.25"
2024-05-28_13-19-10.944519,"78.03,74.01"
2024-05-28_13-19-10.977124,"83.43,68.61"
2024-05-28_13-19-11.005805,"91.66,69.46"
2024-05-28_13-19-11.038562,"70.77,71.91"
