timestamp,EMG
2024-05-28_11-25-32.313246,"32,58.05"
2024-05-28_11-25-32.313367,"62.17,73.10"
2024-05-28_11-25-32.313436,"72.18,70.11"
2024-05-28_11-25-32.313520,"68.36,69.86"
2024-05-28_11-25-32.313593,"78.13,72.93"
2024-05-28_11-25-32.313702,"67.23,71.87"
2024-05-28_11-25-32.313796,".33,71.95"
2024-05-28_11-25-32.313877,"81.18,70.92"
2024-05-28_11-25-32.314004,"74.31,83.89"
2024-05-28_11-25-32.314202,"78.37,64.78"
2024-05-28_11-25-32.314291,"83.32,58.05"
2024-05-28_11-25-32.314360,"62.17,73.10"
2024-05-28_11-25-32.314421,"72.18,70.11"
2024-05-28_11-25-32.314473,"68.36,69.86"
2024-05-28_11-25-32.314540,"78.13,72.93"
2024-05-28_11-25-32.314593,"67.23,71.87"
2024-05-28_11-25-32.314640,".33,71.95"
2024-05-28_11-25-32.314692,"81.18,70.92"
2024-05-28_11-25-32.314743,"74.31,83.89"
2024-05-28_11-25-32.314794,"78.37,64.78"
2024-05-28_11-25-32.314877,"83.32,58.05"
2024-05-28_11-25-32.314930,"62.17,73.10"
2024-05-28_11-25-32.314981,"72.18,70.11"
2024-05-28_11-25-32.315032,"68.36,69.86"
2024-05-28_11-25-32.315083,"78.13,72.93"
2024-05-28_11-25-32.315159,"67.23,71.87"
2024-05-28_11-25-33.978837,"76.67,73.66"
2024-05-28_11-25-34.011246,"99.29,65.58"
2024-05-28_11-25-34.045140,"73.86,70.34"
2024-05-28_11-25-34.072783,"74.32,78.68"
2024-05-28_11-25-34.105550,"92.53,82.70"
2024-05-28_11-25-34.138244,"74.47,66.80"
2024-05-28_11-25-34.170967,"68.39,76.67"
2024-05-28_11-25-34.203732,"81.73,67.04"
2024-05-28_11-25-34.236485,"80.93,80.73"
2024-05-28_11-25-34.269156,"73.97,73.35"
2024-05-28_11-25-34.297948,"90.13,64.72"
2024-05-28_11-25-34.330726,"89.79,74.36"
2024-05-28_11-25-34.363485,"68.60,74.52"
2024-05-28_11-25-34.396247,"80.51,76.21"
2024-05-28_11-25-34.429006,"88.98,81.13"
2024-05-28_11-25-34.461725,"62.14,65.80"
2024-05-28_11-25-34.494457,"79.05,80.47"
2024-05-28_11-25-34.524164,"81.65,69.42"
2024-05-28_11-25-34.556085,"77.42,75.45"
2024-05-28_11-25-34.588718,"88.19,70.71"
2024-05-28_11-25-34.621472,"89.11,63.07"
2024-05-28_11-25-34.654236,"75.30,80.02"
2024-05-28_11-25-34.687032,"78.54,76.00"
2024-05-28_11-25-34.719676,"77.85,69.66"
2024-05-28_11-25-34.748483,"93.05,78.46"
2024-05-28_11-25-34.781279,"67.64,66.48"
2024-05-28_11-25-34.814019,"78.17,79.94"
2024-05-28_11-25-34.846777,"81.14,75.68"
2024-05-28_11-25-34.879575,"74.42,70.14"
2024-05-28_11-25-34.912220,"92.26,66.84"
2024-05-28_11-25-34.944948,"86.57,70.27"
2024-05-28_11-25-34.973774,"66.19,72.25"
2024-05-28_11-25-35.006507,"82.16,81.37"
2024-05-28_11-25-35.039802,"87.19,67.81"
2024-05-28_11-25-35.072093,"73.07,81.08"
2024-05-28_11-25-35.104870,"66.65,68.89"
2024-05-28_11-25-35.137578,"79.14,73.22"
2024-05-28_11-25-35.170204,"82.12,76.06"
2024-05-28_11-25-35.198949,"65.77,66.84"
2024-05-28_11-25-35.231703,"97.40,73.55"
2024-05-28_11-25-35.264530,"81.39,72.08"
2024-05-28_11-25-35.297345,"65.55,65.67"
2024-05-28_11-25-35.330047,"88.50,81.92"
2024-05-28_11-25-35.362814,"84.24,67.46"
2024-05-28_11-25-35.395462,"68.50,80.50"
2024-05-28_11-25-35.424238,"72.97,76.24"
2024-05-28_11-25-35.456998,"84.53,67.34"
2024-05-28_11-25-35.489802,"78.70,75.52"
2024-05-28_11-25-35.522573,"94.66,68.09"
2024-05-28_11-25-35.555287,"85.96,69.56"
2024-05-28_11-25-35.588040,"77.85,70.97"
2024-05-28_11-25-35.620890,"74.64,68.39"
2024-05-28_11-25-35.649555,"84.27,85.32"
2024-05-28_11-25-35.682262,"82.20,71.68"
2024-05-28_11-25-35.715059,"69.17,72.77"
2024-05-28_11-25-35.747865,"79.17,76.38"
2024-05-28_11-25-35.780663,"77.53,66.28"
2024-05-28_11-25-35.813314,"80.03,82.15"
2024-05-28_11-25-35.845991,"92.29,60.19"
2024-05-28_11-25-35.874816,"84.12,79.36"
2024-05-28_11-25-35.907658,"74.66,61.70"
2024-05-28_11-25-35.940273,"80.44,69.66"
2024-05-28_11-25-35.973057,"92.26,83.81"
2024-05-28_11-25-36.005831,"53.37,78.71"
2024-05-28_11-25-36.038575,"74.46,66.47"
2024-05-28_11-25-36.071256,"87.47,74.96"
2024-05-28_11-25-36.100003,"82.68,68.04"
2024-05-28_11-25-36.132765,"66.42,80.13"
2024-05-28_11-25-36.165562,"102.33,63.28"
2024-05-28_11-25-36.198275,"75.18,67.68"
2024-05-28_11-25-36.231063,"72.54,78.90"
2024-05-28_11-25-36.263831,"82.30,75.97"
2024-05-28_11-25-36.296548,"96.38,73.07"
2024-05-28_11-25-36.325261,"62.50,77.48"
2024-05-28_11-25-36.358174,"72.49,65.81"
2024-05-28_11-25-36.390867,"90.06,80.46"
2024-05-28_11-25-36.423542,"78.73,68.17"
2024-05-28_11-25-36.456343,"79.72,72.82"
2024-05-28_11-25-36.489081,"98.74,63.96"
2024-05-28_11-25-36.521781,"73.45,70.57"
2024-05-28_11-25-36.550532,"74.73,78.47"
2024-05-28_11-25-36.583296,"93.46,82.63"
2024-05-28_11-25-36.616016,"75.42,67.18"
2024-05-28_11-25-36.648800,"68.12,76.07"
2024-05-28_11-25-36.681573,"80.88,66.91"
2024-05-28_11-25-36.714319,"81.45,80.06"
2024-05-28_11-25-36.747038,"74.44,74.40"
2024-05-28_11-25-36.775786,"89.39,64.62"
2024-05-28_11-25-36.808696,"90.40,72.42"
2024-05-28_11-25-36.841313,"69.51,70.63"
2024-05-28_11-25-36.874380,"76.88,73.98"
2024-05-28_11-25-36.906903,"96.89,79.60"
2024-05-28_11-25-36.939627,"61.18,65.95"
2024-05-28_11-25-36.972310,"75.85,79.73"
2024-05-28_11-25-37.001087,"81.05,68.59"
2024-05-28_11-25-37.033763,"77.77,74.90"
2024-05-28_11-25-37.066538,"75.15,73.29"
2024-05-28_11-25-37.099292,"93.00,63.98"
2024-05-28_11-25-37.132075,"81.89,74.57"
2024-05-28_11-25-37.164899,"74.74,73.24"
2024-05-28_11-25-37.197539,"75.19,70.72"
2024-05-28_11-25-37.226268,"90.77,78.76"
2024-05-28_11-25-37.259032,"65.88,66.33"
2024-05-28_11-25-37.291810,"76.36,80.11"
2024-05-28_11-25-37.324555,"79.99,75.04"
2024-05-28_11-25-37.357361,"77.71,69.40"
2024-05-28_11-25-37.390098,"74.63,71.26"
2024-05-28_11-25-37.422805,"93.22,67.76"
2024-05-28_11-25-37.451529,"72.78,73.04"
2024-05-28_11-25-37.484292,"75.97,72.72"
2024-05-28_11-25-37.517078,"84.96,69.88"
2024-05-28_11-25-37.549845,"82.77,81.61"
2024-05-28_11-25-37.582679,"62.61,70.23"
2024-05-28_11-25-37.615446,"77.68,72.60"
2024-05-28_11-25-37.648098,"85.03,76.03"
2024-05-28_11-25-37.676934,"71.40,68.04"
2024-05-28_11-25-37.709604,"78.74,77.11"
2024-05-28_11-25-37.742331,"91.25,59.18"
2024-05-28_11-25-37.775122,"65.89,70.83"
2024-05-28_11-25-37.807863,"81.18,76.38"
2024-05-28_11-25-37.840595,"87.79,68.62"
2024-05-28_11-25-37.873301,"74.70,81.41"
2024-05-28_11-25-37.902087,"63.71,76.43"
2024-05-28_11-25-37.934827,"80.30,66.67"
2024-05-28_11-25-37.967582,"85.44,74.55"
2024-05-28_11-25-38.000327,"76.25,69.69"
2024-05-28_11-25-38.033114,"84.81,72.82"
2024-05-28_11-25-38.065881,"89.02,63.71"
2024-05-28_11-25-38.098572,"69.20,70.50"
2024-05-28_11-25-38.127345,"80.88,81.46"
2024-05-28_11-25-38.160063,"87.72,73.35"
2024-05-28_11-25-38.193161,"77.15,72.68"
2024-05-28_11-25-38.225611,"72.33,76.30"
2024-05-28_11-25-38.258368,"76.98,65.31"
2024-05-28_11-25-38.291135,"86.61,81.82"
2024-05-28_11-25-38.323855,"74.04,63.94"
2024-05-28_11-25-38.352643,"93.76,69.68"
2024-05-28_11-25-38.385389,"84.45,68.47"
2024-05-28_11-25-38.418109,"71.53,62.75"
2024-05-28_11-25-38.450877,"86.02,81.95"
2024-05-28_11-25-38.483630,"79.77,78.76"
2024-05-28_11-25-38.516425,"69.49,66.50"
2024-05-28_11-25-38.549138,"83.87,74.88"
2024-05-28_11-25-38.577826,"84.55,67.18"
2024-05-28_11-25-38.610652,"70.30,82.38"
2024-05-28_11-25-38.643427,"91.33,66.69"
2024-05-28_11-25-38.676110,"84.10,64.11"
2024-05-28_11-25-38.708905,"76.80,75.61"
2024-05-28_11-25-38.741677,"73.83,67.78"
2024-05-28_11-25-38.774412,"84.25,74.01"
2024-05-28_11-25-38.803083,"82.61,77.93"
2024-05-28_11-25-38.835873,"65.14,65.89"
2024-05-28_11-25-38.868594,"85.83,79.72"
2024-05-28_11-25-38.901414,"80.72,68.24"
2024-05-28_11-25-38.934103,"67.00,75.69"
2024-05-28_11-25-38.966918,"107.51,65.15"
2024-05-28_11-25-38.999600,"77.60,66.68"
2024-05-28_11-25-39.028448,"70.54,72.39"
2024-05-28_11-25-39.061093,"87.29,79.76"
2024-05-28_11-25-39.093998,"83.12,66.61"
2024-05-28_11-25-39.126669,"61.94,75.40"
2024-05-28_11-25-39.162821,"77.02,66.17"
2024-05-28_11-25-39.197191,"80.24,80.07"
2024-05-28_11-25-39.224886,"77.76,75.05"
2024-05-28_11-25-39.253639,"71.78,67.15"
2024-05-28_11-25-39.291126,"102.58,63.01"
2024-05-28_11-25-39.320351,"76.30,63.72"
2024-05-28_11-25-39.351937,"70.37,69.12"
2024-05-28_11-25-39.385456,"90.58,78.72"
2024-05-28_11-25-39.417454,"56.09,66.04"
2024-05-28_11-25-39.450301,"69.57,79.40"
2024-05-28_11-25-39.479139,"78.42,67.79"
2024-05-28_11-25-39.511751,"76.51,74.48"
2024-05-28_11-25-39.545309,"78.96,73.91"
2024-05-28_11-25-39.577184,"97.25,64.69"
2024-05-28_11-25-39.610053,"86.83,76.00"
2024-05-28_11-25-39.642737,"75.49,67.17"
2024-05-28_11-25-39.675378,"71.81,68.69"
2024-05-28_11-25-39.704224,"90.57,76.85"
2024-05-28_11-25-39.737039,"64.93,66.58"
2024-05-28_11-25-39.769721,"72.87,79.19"
2024-05-28_11-25-39.802433,"64.96,73.37"
2024-05-28_11-25-39.835186,"75.89,69.99"
2024-05-28_11-25-39.868015,"86.95,72.64"
2024-05-28_11-25-39.900733,"95.19,68.07"
2024-05-28_11-25-39.929433,"69.36,67.72"
2024-05-28_11-25-39.962139,"78.62,65.71"
2024-05-28_11-25-39.994902,"85.68,68.58"
2024-05-28_11-25-40.027648,"85.61,81.20"
2024-05-28_11-25-40.060420,"64.37,69.69"
2024-05-28_11-25-40.093219,"78.30,72.51"
2024-05-28_11-25-40.125936,"84.97,75.81"
2024-05-28_11-25-40.158560,"69.08,68.67"
2024-05-28_11-25-40.187365,"97.10,80.59"
2024-05-28_11-25-40.220152,"90.03,58.73"
2024-05-28_11-25-40.252937,"66.85,69.42"
2024-05-28_11-25-40.285698,"80.54,69.27"
2024-05-28_11-25-40.318470,"87.85,68.26"
2024-05-28_11-25-40.351300,"75.42,80.42"
2024-05-28_11-25-40.383888,"67.41,75.21"
2024-05-28_11-25-40.412747,"82.01,66.55"
2024-05-28_11-25-40.445447,"83.47,74.99"
2024-05-28_11-25-40.478169,"88.40,70.31"
2024-05-28_11-25-40.510971,"93.25,74.00"
2024-05-28_11-25-40.543705,"83.26,67.84"
2024-05-28_11-25-40.576417,"71.72,63.35"
2024-05-28_11-25-40.609100,"81.85,80.05"
2024-05-28_11-25-40.637960,"80.92,71.24"
2024-05-28_11-25-40.670757,"67.14,72.05"
2024-05-28_11-25-40.703434,"79.69,74.58"
2024-05-28_11-25-40.736172,"62.06,65.76"
2024-05-28_11-25-40.769024,"82.54,82.53"
2024-05-28_11-25-40.801688,"83.10,62.62"
2024-05-28_11-25-40.834390,"87.45,78.06"
2024-05-28_11-25-40.863221,"76.14,56.15"
2024-05-28_11-25-40.895925,"78.84,63.27"
2024-05-28_11-25-40.928685,"89.43,83.34"
2024-05-28_11-25-40.961455,"53.95,76.94"
2024-05-28_11-25-40.994231,"73.47,66.17"
2024-05-28_11-25-41.026968,"86.11,73.93"
2024-05-28_11-25-41.059671,"81.85,67.95"
2024-05-28_11-25-41.088419,"65.98,81.57"
2024-05-28_11-25-41.121284,"105.14,64.66"
2024-05-28_11-25-41.153951,"76.63,54.79"
2024-05-28_11-25-41.186736,"71.70,71.43"
2024-05-28_11-25-41.219464,"81.30,73.14"
2024-05-28_11-25-41.252232,"83.11,72.25"
2024-05-28_11-25-41.284908,"62.55,76.50"
2024-05-28_11-25-41.313651,"75.52,65.14"
2024-05-28_11-25-41.346433,"89.49,80.84"
2024-05-28_11-25-41.379217,"76.45,68.36"
2024-05-28_11-25-41.411989,"90.76,73.25"
2024-05-28_11-25-41.444709,"96.04,68.36"
2024-05-28_11-25-41.477463,"68.18,61.96"
2024-05-28_11-25-41.510165,"78.99,75.90"
2024-05-28_11-25-41.538922,"96.70,80.07"
2024-05-28_11-25-41.571690,"64.67,66.38"
2024-05-28_11-25-41.604442,"74.69,74.95"
2024-05-28_11-25-41.637275,"85.29,66.47"
2024-05-28_11-25-41.670011,"76.63,81.12"
2024-05-28_11-25-41.702757,"94.75,72.22"
2024-05-28_11-25-41.735404,"87.24,64.08"
2024-05-28_11-25-41.764293,"81.30,72.25"
2024-05-28_11-25-41.796985,"72.30,66.30"
2024-05-28_11-25-41.829802,"78.65,74.40"
2024-05-28_11-25-41.862531,"78.60,77.56"
2024-05-28_11-25-41.895245,"65.10,65.43"
2024-05-28_11-25-41.928003,"83.74,79.75"
2024-05-28_11-25-41.960625,"68.38,68.66"
2024-05-28_11-25-41.989451,"73.32,75.83"
2024-05-28_11-25-42.022227,"96.11,71.01"
2024-05-28_11-25-42.056179,"86.67,62.93"
2024-05-28_11-25-42.087705,"72.44,72.50"
2024-05-28_11-25-42.120509,"80.68,71.98"
2024-05-28_11-25-42.155618,"78.25,68.22"
2024-05-28_11-25-42.186065,"83.48,75.90"
2024-05-28_11-25-42.214689,"72.71,65.86"
2024-05-28_11-25-42.247462,"82.79,79.16"
2024-05-28_11-25-42.280431,"78.57,74.95"
2024-05-28_11-25-42.313051,"72.77,70.35"
2024-05-28_11-25-42.345843,"101.64,66.16"
2024-05-28_11-25-42.378484,"83.20,75.35"
2024-05-28_11-25-42.411218,"67.54,58.63"
2024-05-28_11-25-42.439962,"83.56,73.15"
2024-05-28_11-25-42.472766,"80.85,66.85"
2024-05-28_11-25-42.505511,"63.89,79.64"
2024-05-28_11-25-42.538260,"72.81,68.16"
2024-05-28_11-25-42.571014,"82.06,73.25"
2024-05-28_11-25-42.603758,"80.65,75.87"
2024-05-28_11-25-42.642319,"79.14,68.71"
2024-05-28_11-25-42.665308,"95.41,73.47"
2024-05-28_11-25-42.698031,"77.19,51.88"
2024-05-28_11-25-42.730789,"67.92,65.37"
2024-05-28_11-25-42.763572,"90.27,77.18"
2024-05-28_11-25-42.796278,"72.40,66.54"
2024-05-28_11-25-42.829002,"70.40,79.24"
2024-05-28_11-25-42.861717,"75.68,75.35"
2024-05-28_11-25-42.890433,"79.85,68.11"
2024-05-28_11-25-42.923193,"78.67,75.69"
2024-05-28_11-25-42.955995,"104.08,68.01"
2024-05-28_11-25-42.988790,"83.23,76.36"
2024-05-28_11-25-43.021567,"75.00,58.92"
2024-05-28_11-25-43.054299,"78.76,64.36"
2024-05-28_11-25-43.086963,"88.95,82.40"
2024-05-28_11-25-43.115735,"57.73,70.27"
2024-05-28_11-25-43.148487,"73.87,72.10"
2024-05-28_11-25-43.181244,"85.40,75.25"
2024-05-28_11-25-43.214012,"73.09,67.20"
2024-05-28_11-25-43.246757,"76.96,81.52"
2024-05-28_11-25-43.279575,"97.31,59.28"
2024-05-28_11-25-43.312283,"71.79,73.38"
2024-05-28_11-25-43.340938,"79.00,65.17"
2024-05-28_11-25-43.373740,"87.23,68.51"
2024-05-28_11-25-43.406550,"73.60,80.95"
2024-05-28_11-25-43.439234,"63.41,75.42"
2024-05-28_11-25-43.472054,"81.09,66.46"
2024-05-28_11-25-43.504776,"86.61,74.16"
2024-05-28_11-25-43.537492,"76.07,69.34"
2024-05-28_11-25-43.566200,"85.65,77.02"
2024-05-28_11-25-43.599042,"87.09,67.99"
2024-05-28_11-25-43.631795,"69.99,59.61"
2024-05-28_11-25-43.664534,"81.54,79.48"
2024-05-28_11-25-43.697297,"82.23,71.57"
2024-05-28_11-25-43.730138,"66.22,72.41"
2024-05-28_11-25-43.762769,"77.38,75.12"
2024-05-28_11-25-43.791477,"78.94,65.77"
2024-05-28_11-25-43.824556,"84.15,81.81"
2024-05-28_11-25-43.857080,"82.69,62.61"
2024-05-28_11-25-43.889869,"91.05,81.77"
2024-05-28_11-25-43.922574,"77.14,54.12"
2024-05-28_11-25-43.955328,"78.06,62.89"
2024-05-28_11-25-43.987997,"90.60,82.27"
2024-05-28_11-25-44.016730,"55.33,76.82"
2024-05-28_11-25-44.049513,"74.08,65.71"
2024-05-28_11-25-44.082527,"85.80,74.04"
2024-05-28_11-25-44.115052,"82.82,67.69"
2024-05-28_11-25-44.147798,"68.36,81.77"
2024-05-28_11-25-44.180586,"104.28,65.16"
2024-05-28_11-25-44.213276,"76.30,65.45"
2024-05-28_11-25-44.242014,"73.64,70.47"
2024-05-28_11-25-44.274782,"79.64,70.24"
2024-05-28_11-25-44.307531,"82.51,73.29"
2024-05-28_11-25-44.340280,"65.35,76.24"
2024-05-28_11-25-44.373067,"74.61,65.29"
2024-05-28_11-25-44.405828,"89.36,80.14"
2024-05-28_11-25-44.438513,"76.09,68.80"
2024-05-28_11-25-44.471270,"90.20,74.45"
2024-05-28_11-25-44.500052,"94.59,72.45"
2024-05-28_11-25-44.532815,"67.89,55.75"
2024-05-28_11-25-44.565560,"78.69,74.43"
2024-05-28_11-25-44.598345,"95.79,79.72"
2024-05-28_11-25-44.631207,"62.68,66.26"
2024-05-28_11-25-44.663855,"74.53,74.15"
2024-05-28_11-25-44.696512,"86.10,66.08"
2024-05-28_11-25-44.725316,"77.55,80.14"
2024-05-28_11-25-44.758043,"85.25,73.80"
2024-05-28_11-25-44.790830,"87.43,64.85"
2024-05-28_11-25-44.823560,"82.72,72.83"
2024-05-28_11-25-44.856375,"73.56,61.28"
2024-05-28_11-25-44.889111,"79.16,71.92"
2024-05-28_11-25-44.921742,"78.36,77.79"
2024-05-28_11-25-44.950494,"67.35,65.53"
2024-05-28_11-25-44.983291,"85.09,79.53"
2024-05-28_11-25-45.016108,"70.30,67.44"
2024-05-28_11-25-45.048929,"70.46,76.00"
2024-05-28_11-25-45.081603,"93.81,69.71"
2024-05-28_11-25-45.114309,"86.80,63.41"
2024-05-28_11-25-45.147083,"72.80,72.25"
2024-05-28_11-25-45.175759,"81.48,69.11"
2024-05-28_11-25-45.208548,"80.80,67.95"
2024-05-28_11-25-45.241328,"74.20,76.13"
2024-05-28_11-25-45.274085,"74.30,66.01"
2024-05-28_11-25-45.306899,"81.73,79.37"
2024-05-28_11-25-45.339716,"64.55,74.77"
2024-05-28_11-25-45.372296,"69.54,69.62"
2024-05-28_11-25-45.401101,"106.21,65.46"
2024-05-28_11-25-45.433794,"79.81,72.26"
2024-05-28_11-25-45.466661,"67.26,66.60"
2024-05-28_11-25-45.499383,"88.45,77.29"
2024-05-28_11-25-45.532066,"86.07,66.06"
2024-05-28_11-25-45.564880,"70.31,79.87"
2024-05-28_11-25-45.597570,"77.41,68.40"
2024-05-28_11-25-45.626325,"81.02,73.79"
2024-05-28_11-25-45.659071,"78.64,76.42"
2024-05-28_11-25-45.691813,"87.51,66.44"
2024-05-28_11-25-45.724584,"90.96,78.25"
2024-05-28_11-25-45.757361,"74.11,58.16"
2024-05-28_11-25-45.790056,"70.86,63.54"
2024-05-28_11-25-45.822833,"95.50,78.66"
2024-05-28_11-25-45.851593,"63.62,65.89"
2024-05-28_11-25-45.884336,"70.26,78.98"
2024-05-28_11-25-45.917079,"80.37,73.62"
2024-05-28_11-25-45.949872,"78.90,69.07"
2024-05-28_11-25-45.982642,"77.88,73.48"
2024-05-28_11-25-46.015388,"98.53,67.48"
2024-05-28_11-25-46.048058,"77.78,72.06"
2024-05-28_11-25-46.076872,"75.07,64.49"
2024-05-28_11-25-46.109589,"82.00,65.92"
2024-05-28_11-25-46.142371,"93.13,81.02"
2024-05-28_11-25-46.175099,"62.93,69.26"
2024-05-28_11-25-46.207903,"76.44,72.19"
2024-05-28_11-25-46.240629,"83.47,74.79"
2024-05-28_11-25-46.273317,"71.65,67.53"
2024-05-28_11-25-46.302125,"88.76,79.83"
2024-05-28_11-25-46.334832,"91.15,58.26"
2024-05-28_11-25-46.367590,"67.65,68.48"
2024-05-28_11-25-46.400345,"79.89,63.08"
2024-05-28_11-25-46.433149,"87.27,66.53"
2024-05-28_11-25-46.465888,"73.17,80.81"
2024-05-28_11-25-46.498604,"66.10,75.16"
2024-05-28_11-25-46.527337,"82.39,66.34"
2024-05-28_11-25-46.560107,"85.48,74.50"
2024-05-28_11-25-46.592819,"77.03,69.03"
2024-05-28_11-25-46.625582,"88.38,78.99"
2024-05-28_11-25-46.658355,"91.21,62.52"
2024-05-28_11-25-46.691155,"70.32,68.98"
2024-05-28_11-25-46.723803,"78.48,72.24"
2024-05-28_11-25-46.752596,"87.57,72.66"
2024-05-28_11-25-46.785363,"76.00,72.36"
2024-05-28_11-25-46.818127,"71.54,75.30"
2024-05-28_11-25-46.850907,"77.03,64.91"
2024-05-28_11-25-46.883613,"85.88,81.12"
2024-05-28_11-25-46.916378,"74.76,67.98"
2024-05-28_11-25-46.949081,"96.86,72.55"
2024-05-28_11-25-46.977981,"85.79,67.58"
2024-05-28_11-25-47.010660,"70.19,59.24"
2024-05-28_11-25-47.043523,"81.31,78.80"
2024-05-28_11-25-47.076233,"77.12,77.59"
2024-05-28_11-25-47.109110,"63.49,66.02"
2024-05-28_11-25-47.142003,"78.20,73.23"
2024-05-28_11-25-47.174439,"83.99,66.84"
2024-05-28_11-25-47.203507,"71.29,81.20"
2024-05-28_11-25-47.235921,"92.10,69.03"
2024-05-28_11-25-47.268664,"85.93,64.58"
2024-05-28_11-25-47.301446,"78.30,60.59"
2024-05-28_11-25-47.334400,"74.10,64.32"
2024-05-28_11-25-47.367104,"85.02,72.12"
2024-05-28_11-25-47.399629,"68.79,76.38"
2024-05-28_11-25-47.428393,"63.75,65.63"
2024-05-28_11-25-47.461274,"83.85,79.35"
2024-05-28_11-25-47.494019,"66.02,67.03"
2024-05-28_11-25-47.526757,"68.72,76.44"
2024-05-28_11-25-47.559502,"92.95,68.60"
2024-05-28_11-25-47.592185,"84.05,65.88"
2024-05-28_11-25-47.624913,"71.16,66.11"
2024-05-28_11-25-47.653729,"83.37,74.12"
2024-05-28_11-25-47.686472,"79.29,67.11"
2024-05-28_11-25-47.719244,"56.62,74.32"
2024-05-28_11-25-47.752057,"72.48,65.96"
2024-05-28_11-25-47.784764,"80.01,79.13"
2024-05-28_11-25-47.817418,"64.10,73.80"
2024-05-28_11-25-47.860965,"71.42,70.48"
2024-05-28_11-25-47.881616,"108.98,65.67"
2024-05-28_11-25-47.911732,"82.28,59.70"
2024-05-28_11-25-47.944488,"67.93,63.08"
2024-05-28_11-25-47.977299,"85.37,76.91"
2024-05-28_11-25-48.010018,"79.74,66.66"
2024-05-28_11-25-48.042768,"59.62,79.14"
2024-05-28_11-25-48.075394,"73.34,66.70"
2024-05-28_11-25-48.104261,"79.70,73.33"
2024-05-28_11-25-48.136974,"66.93,75.22"
2024-05-28_11-25-48.169793,"78.99,67.37"
2024-05-28_11-25-48.202557,"99.80,81.85"
2024-05-28_11-25-48.235224,"75.96,52.64"
2024-05-28_11-25-48.268002,"69.43,63.58"
2024-05-28_11-25-48.302935,"90.51,76.40"
2024-05-28_11-25-48.329520,"58.57,66.20"
2024-05-28_11-25-48.362192,"67.21,78.89"
2024-05-28_11-25-48.395003,"73.81,74.05"
2024-05-28_11-25-48.427701,"80.92,68.32"
2024-05-28_11-25-48.460458,"79.68,75.17"
2024-05-28_11-25-48.493214,"94.54,68.86"
2024-05-28_11-25-48.525914,"84.87,73.05"
2024-05-28_11-25-48.554668,"75.20,60.61"
2024-05-28_11-25-48.587477,"79.89,62.51"
2024-05-28_11-25-48.620188,"89.51,82.24"
2024-05-28_11-25-48.654020,"59.08,69.14"
2024-05-28_11-25-48.685719,"72.88,71.80"
2024-05-28_11-25-48.718450,"84.28,74.62"
2024-05-28_11-25-48.751151,"73.43,67.28"
2024-05-28_11-25-48.779951,"77.96,83.06"
2024-05-28_11-25-48.812691,"97.80,60.01"
2024-05-28_11-25-48.845491,"79.28,75.14"
2024-05-28_11-25-48.878237,"77.66,64.30"
2024-05-28_11-25-48.910989,"82.73,66.92"
2024-05-28_11-25-48.943751,"82.90,81.27"
2024-05-28_11-25-48.976460,"60.36,75.47"
2024-05-28_11-25-49.005376,"76.89,65.95"
2024-05-28_11-25-49.037943,"87.13,73.56"
2024-05-28_11-25-49.070687,"79.63,68.32"
2024-05-28_11-25-49.103470,"80.98,80.06"
2024-05-28_11-25-49.136275,"97.20,63.41"
2024-05-28_11-25-49.168987,"70.27,65.67"
2024-05-28_11-25-49.201685,"76.52,71.29"
2024-05-28_11-25-49.230458,"83.74,71.40"
2024-05-28_11-25-49.263232,"74.45,72.73"
2024-05-28_11-25-49.295957,"71.04,74.47"
2024-05-28_11-25-49.328783,"77.16,65.30"
2024-05-28_11-25-49.361481,"87.13,80.48"
2024-05-28_11-25-49.394275,"75.38,67.41"
2024-05-28_11-25-49.427904,"90.46,73.40"
2024-05-28_11-25-49.455739,"92.89,61.93"
2024-05-28_11-25-49.488452,"68.37,52.38"
2024-05-28_11-25-49.521315,"78.86,76.34"
2024-05-28_11-25-49.553945,"86.41,78.31"
2024-05-28_11-25-49.586733,"62.80,66.19"
2024-05-28_11-25-49.619489,"76.85,73.39"
2024-05-28_11-25-49.652204,"73.25,66.32"
2024-05-28_11-25-49.680926,"71.98,80.86"
2024-05-28_11-25-49.713761,"96.46,72.91"
2024-05-28_11-25-49.746508,"88.85,64.75"
2024-05-28_11-25-49.779250,"78.33,71.39"
2024-05-28_11-25-49.811980,"74.37,61.43"
2024-05-28_11-25-49.844791,"81.05,70.68"
2024-05-28_11-25-49.877469,"81.30,76.16"
2024-05-28_11-25-49.910153,"66.67,65.03"
2024-05-28_11-25-49.938933,"88.46,78.53"
2024-05-28_11-25-49.971732,"82.10,67.41"
2024-05-28_11-25-50.004529,"70.22,75.98"
2024-05-28_11-25-50.037323,"92.72,68.15"
2024-05-28_11-25-50.070080,"83.61,65.39"
2024-05-28_11-25-50.102721,"70.74,67.96"
2024-05-28_11-25-50.135497,"83.97,73.74"
2024-05-28_11-25-50.164273,"83.25,66.55"
2024-05-28_11-25-50.197000,"60.26,74.78"
2024-05-28_11-25-50.242759,"75.13,65.78"
2024-05-28_11-25-50.263102,"78.21,79.11"
2024-05-28_11-25-50.295401,"77.31,73.35"
2024-05-28_11-25-50.332472,"73.19,71.14"
2024-05-28_11-25-50.360691,"100.87,65.77"
2024-05-28_11-25-50.389500,"83.40,71.22"
2024-05-28_11-25-50.422276,"66.13,63.71"
2024-05-28_11-25-50.454987,"82.67,72.42"
2024-05-28_11-25-50.487734,"81.52,66.56"
2024-05-28_11-25-50.521161,"64.30,79.30"
2024-05-28_11-25-50.553265,"72.51,67.66"
2024-05-28_11-25-50.585967,"80.41,72.86"
2024-05-28_11-25-50.614827,"67.65,74.97"
2024-05-28_11-25-50.647522,"78.29,69.47"
2024-05-28_11-25-50.680289,"99.23,81.76"
2024-05-28_11-25-50.718105,"76.91,51.49"
2024-05-28_11-25-50.746422,"68.33,62.16"
2024-05-28_11-25-50.780697,"87.21,74.54"
2024-05-28_11-25-50.839267,"85.16,65.94"
2024-05-28_11-25-50.839922,"63.25,78.83"
2024-05-28_11-25-50.873868,"72.02,72.90"
2024-05-28_11-25-50.910241,"64.57,68.59"
2024-05-28_11-25-50.950544,"80.63,74.56"
2024-05-28_11-25-50.975279,"84.49,69.86"
2024-05-28_11-25-51.003785,"89.35,77.46"
2024-05-28_11-25-51.036422,"77.40,56.38"
2024-05-28_11-25-51.065254,"78.30,60.79"
2024-05-28_11-25-51.098120,"85.46,80.91"
2024-05-28_11-25-51.130986,"55.56,69.07"
2024-05-28_11-25-51.163696,"66.56,71.20"
2024-05-28_11-25-51.196337,"69.33,73.30"
2024-05-28_11-25-51.229099,"54.72,68.05"
2024-05-28_11-25-51.261741,"78.99,82.32"
2024-05-28_11-25-51.290494,"97.98,60.49"
2024-05-28_11-25-51.323271,"79.03,62.15"
2024-05-28_11-25-51.356050,"76.48,62.42"
2024-05-28_11-25-51.388822,"81.21,63.62"
2024-05-28_11-25-51.421542,"83.64,81.88"
2024-05-28_11-25-51.454249,"58.14,76.02"
2024-05-28_11-25-51.486993,"76.26,66.01"
2024-05-28_11-25-51.515857,"87.75,73.72"
2024-05-28_11-25-51.548577,"79.97,68.30"
2024-05-28_11-25-51.581339,"67.48,82.63"
2024-05-28_11-25-51.614069,"103.14,66.29"
2024-05-28_11-25-51.646891,"72.28,65.11"
2024-05-28_11-25-51.679577,"75.73,67.67"
2024-05-28_11-25-51.712244,"79.40,68.66"
2024-05-28_11-25-51.741059,"93.27,73.03"
2024-05-28_11-25-51.773819,"65.43,75.46"
2024-05-28_11-25-51.806511,"72.34,65.14"
2024-05-28_11-25-51.839337,"76.68,79.75"
2024-05-28_11-25-51.872095,"76.27,68.06"
2024-05-28_11-25-51.904772,"82.68,75.51"
2024-05-28_11-25-51.937491,"98.22,69.93"
2024-05-28_11-25-51.966287,"68.36,59.33"
2024-05-28_11-25-51.999051,"76.09,67.17"
2024-05-28_11-25-52.031814,"94.67,79.33"
2024-05-28_11-25-52.064604,"60.29,66.23"
2024-05-28_11-25-52.097380,"73.14,74.20"
2024-05-28_11-25-52.130158,"84.86,66.05"
2024-05-28_11-25-52.162732,"59.61,79.87"
2024-05-28_11-25-52.191542,"86.55,74.73"
2024-05-28_11-25-52.224298,"91.13,66.77"
2024-05-28_11-25-52.257059,"86.30,73.49"
2024-05-28_11-25-52.289813,"73.87,58.27"
2024-05-28_11-25-52.322623,"77.67,68.73"
2024-05-28_11-25-52.355321,"77.35,77.32"
2024-05-28_11-25-52.388039,"62.93,65.75"
2024-05-28_11-25-52.416829,"83.49,78.98"
2024-05-28_11-25-52.449561,"82.68,67.26"
2024-05-28_11-25-52.482343,"71.20,75.47"
2024-05-28_11-25-52.515143,"95.81,72.12"
2024-05-28_11-25-52.547946,"89.54,64.05"
2024-05-28_11-25-52.580565,"76.61,73.33"
2024-05-28_11-25-52.613297,"79.71,68.63"
2024-05-28_11-25-52.642072,"79.50,67.87"
2024-05-28_11-25-52.675025,"74.05,75.80"
2024-05-28_11-25-52.707571,"72.88,65.97"
2024-05-28_11-25-52.740363,"81.41,79.13"
2024-05-28_11-25-52.773114,"79.36,74.44"
2024-05-28_11-25-52.805799,"70.39,70.47"
2024-05-28_11-25-52.838518,"90.81,69.49"
2024-05-28_11-25-52.867300,"87.28,72.74"
2024-05-28_11-25-52.900111,"66.33,60.75"
2024-05-28_11-25-52.932873,"83.00,70.77"
2024-05-28_11-25-52.965615,"81.34,66.97"
2024-05-28_11-25-52.998369,"63.94,79.84"
2024-05-28_11-25-53.031137,"70.83,68.38"
2024-05-28_11-25-53.063764,"82.91,72.88"
2024-05-28_11-25-53.092540,"83.85,75.41"
2024-05-28_11-25-53.125362,"78.58,69.54"
2024-05-28_11-25-53.158100,"93.82,77.65"
2024-05-28_11-25-53.190847,"84.95,60.71"
2024-05-28_11-25-53.223631,"64.83,64.95"
2024-05-28_11-25-53.256369,"86.73,76.42"
2024-05-28_11-25-53.289061,"85.10,66.66"
2024-05-28_11-25-53.317796,"66.81,79.87"
2024-05-28_11-25-53.350569,"73.52,74.14"
2024-05-28_11-25-53.383339,"68.88,67.43"
2024-05-28_11-25-53.416117,"81.16,74.88"
2024-05-28_11-25-53.448880,"83.61,69.71"
2024-05-28_11-25-53.481688,"90.73,72.94"
2024-05-28_11-25-53.514330,"80.60,51.34"
2024-05-28_11-25-53.544659,"75.28,60.08"
2024-05-28_11-25-53.575794,"83.34,80.32"
2024-05-28_11-25-53.608608,"55.44,69.52"
2024-05-28_11-25-53.641414,"70.06,71.70"
2024-05-28_11-25-53.674201,"82.34,74.46"
2024-05-28_11-25-53.706979,"56.87,66.72"
2024-05-28_11-25-53.739546,"69.74,81.80"
2024-05-28_11-25-53.768660,"93.92,63.50"
2024-05-28_11-25-53.803642,"84.75,72.92"
2024-05-28_11-25-53.834442,"75.21,61.76"
2024-05-28_11-25-53.868191,"78.85,63.47"
2024-05-28_11-25-53.899483,"90.14,81.67"
2024-05-28_11-25-53.932172,"53.24,75.58"
2024-05-28_11-25-53.965169,"70.94,66.04"
2024-05-28_11-25-53.993693,"84.22,73.26"
2024-05-28_11-25-54.026433,"80.61,68.21"
2024-05-28_11-25-54.059121,"69.43,81.85"
2024-05-28_11-25-54.091897,"105.53,66.30"
2024-05-28_11-25-54.124764,"77.81,68.37"
2024-05-28_11-25-54.157380,"73.62,68.73"
2024-05-28_11-25-54.190068,"77.55,68.30"
2024-05-28_11-25-54.218865,"90.60,73.04"
2024-05-28_11-25-54.251677,"62.91,75.15"
2024-05-28_11-25-54.284444,"72.23,64.82"
2024-05-28_11-25-54.317139,"88.32,79.65"
2024-05-28_11-25-54.350101,"77.93,67.91"
2024-05-28_11-25-54.382626,"68.63,76.61"
2024-05-28_11-25-54.415337,"102.36,67.07"
2024-05-28_11-25-54.444089,"70.33,64.68"
2024-05-28_11-25-54.476969,"76.16,67.85"
2024-05-28_11-25-54.509621,"92.41,78.58"
2024-05-28_11-25-54.542740,"62.28,66.60"
2024-05-28_11-25-54.575113,"72.29,74.20"
2024-05-28_11-25-54.607880,"84.65,65.70"
2024-05-28_11-25-54.640631,"78.55,79.70"
2024-05-28_11-25-54.669329,"73.08,75.95"
2024-05-28_11-25-54.702077,"92.33,67.67"
2024-05-28_11-25-54.734871,"93.57,73.46"
2024-05-28_11-25-54.767634,"70.40,58.63"
2024-05-28_11-25-54.800404,"74.04,63.49"
2024-05-28_11-25-54.833162,"95.64,78.47"
2024-05-28_11-25-54.865897,"63.01,65.71"
2024-05-28_11-25-54.894706,"77.09,79.20"
2024-05-28_11-25-54.927421,"83.09,66.73"
2024-05-28_11-25-54.960216,"75.41,74.86"
2024-05-28_11-25-54.992951,"76.92,74.86"
2024-05-28_11-25-55.025658,"92.89,65.92"
2024-05-28_11-25-55.058476,"76.29,71.89"
2024-05-28_11-25-55.091150,"78.80,64.81"
2024-05-28_11-25-55.119851,"76.31,66.59"
2024-05-28_11-25-55.152601,"81.03,76.72"
2024-05-28_11-25-55.185355,"67.83,65.98"
2024-05-28_11-25-55.218395,"78.47,78.83"
2024-05-28_11-25-55.250930,"80.58,73.52"
2024-05-28_11-25-55.283673,"73.92,69.58"
2024-05-28_11-25-55.316434,"96.57,73.79"
2024-05-28_11-25-55.345095,"95.88,68.50"
2024-05-28_11-25-55.377868,"68.09,68.46"
2024-05-28_11-25-55.410652,"79.26,64.39"
2024-05-28_11-25-55.443384,"88.13,66.78"
2024-05-28_11-25-55.476211,"73.61,80.48"
2024-05-28_11-25-55.508932,"64.71,69.04"
2024-05-28_11-25-55.541645,"77.78,72.67"
2024-05-28_11-25-55.570350,"85.87,74.40"
2024-05-28_11-25-55.603144,"68.97,67.99"
2024-05-28_11-25-55.635907,"98.18,80.88"
2024-05-28_11-25-55.668633,"92.48,58.96"
2024-05-28_11-25-55.701410,"68.00,69.19"
2024-05-28_11-25-55.734194,"79.24,65.74"
2024-05-28_11-25-55.766900,"85.78,68.51"
2024-05-28_11-25-55.795717,"72.50,80.35"
2024-05-28_11-25-55.828418,"62.00,74.02"
2024-05-28_11-25-55.861163,"80.45,66.45"
2024-05-28_11-25-55.894003,"86.11,73.59"
2024-05-28_11-25-55.926728,"76.86,69.22"
2024-05-28_11-25-55.959504,"87.89,76.82"
2024-05-28_11-25-55.992126,"94.67,62.37"
2024-05-28_11-25-56.020958,"69.07,65.85"
2024-05-28_11-25-56.053675,"75.93,72.00"
2024-05-28_11-25-56.086431,"88.72,71.60"
2024-05-28_11-25-56.119201,"60.72,72.08"
2024-05-28_11-25-56.151930,"70.68,75.05"
2024-05-28_11-25-56.184710,"77.62,65.46"
2024-05-28_11-25-56.217476,"86.02,80.67"
2024-05-28_11-25-56.246239,"74.61,65.57"
2024-05-28_11-25-56.278954,"85.78,72.20"
2024-05-28_11-25-56.311810,"87.46,65.43"
2024-05-28_11-25-56.344641,"69.93,55.50"
2024-05-28_11-25-56.377272,"79.50,73.95"
2024-05-28_11-25-56.409956,"78.67,77.52"
2024-05-28_11-25-56.442673,"68.15,66.04"
2024-05-28_11-25-56.471383,"78.95,73.67"
2024-05-28_11-25-56.504161,"73.92,66.41"
2024-05-28_11-25-56.536929,"73.63,80.94"
2024-05-28_11-25-56.569694,"95.61,72.43"
2024-05-28_11-25-56.602458,"86.42,64.51"
2024-05-28_11-25-56.635231,"81.90,72.03"
2024-05-28_11-25-56.667923,"73.58,62.40"
2024-05-28_11-25-56.696696,"82.31,72.42"
2024-05-28_11-25-56.729443,"83.00,76.51"
2024-05-28_11-25-56.762167,"68.06,64.89"
2024-05-28_11-25-56.794925,"86.54,78.97"
2024-05-28_11-25-56.827781,"81.51,67.60"
2024-05-28_11-25-56.860544,"71.16,76.25"
2024-05-28_11-25-56.893377,"103.18,70.01"
2024-05-28_11-25-56.925907,"81.39,66.59"
2024-05-28_11-25-56.954705,"72.26,67.37"
2024-05-28_11-25-56.987483,"82.20,74.63"
2024-05-28_11-25-57.020226,"77.91,67.34"
2024-05-28_11-25-57.053683,"57.23,73.92"
2024-05-28_11-25-57.086099,"74.84,65.35"
2024-05-28_11-25-57.121565,"79.74,78.69"
2024-05-28_11-25-57.152923,"63.78,73.77"
2024-05-28_11-25-57.181681,"72.60,70.65"
2024-05-28_11-25-57.212859,"111.45,68.34"
2024-05-28_11-25-57.245584,"82.95,69.57"
2024-05-28_11-25-57.278249,"68.13,64.82"
2024-05-28_11-25-57.311036,"84.11,75.16"
2024-05-28_11-25-57.343713,"81.16,66.48"
2024-05-28_11-25-57.376462,"66.69,79.35"
2024-05-28_11-25-57.405243,"74.18,67.24"
2024-05-28_11-25-57.438011,"81.38,72.82"
2024-05-28_11-25-57.470763,"79.53,75.49"
2024-05-28_11-25-57.503491,"78.66,69.62"
2024-05-28_11-25-57.536253,"99.99,74.94"
2024-05-28_11-25-57.568978,"80.02,62.79"
2024-05-28_11-25-57.601618,"67.47,64.22"
2024-05-28_11-25-57.630484,"88.91,74.88"
2024-05-28_11-25-57.663357,"73.90,66.32"
2024-05-28_11-25-57.696087,"67.48,79.19"
2024-05-28_11-25-57.728770,"75.77,73.13"
2024-05-28_11-25-57.761533,"81.08,67.46"
2024-05-28_11-25-57.794181,"77.43,75.34"
2024-05-28_11-25-57.826920,"85.90,70.34"
2024-05-28_11-25-57.855728,"87.81,77.21"
2024-05-28_11-25-57.888527,"76.39,56.54"
2024-05-28_11-25-57.921267,"77.63,62.12"
2024-05-28_11-25-57.954032,"86.13,78.64"
2024-05-28_11-25-57.986790,"54.92,69.66"
2024-05-28_11-25-58.019490,"70.81,71.89"
2024-05-28_11-25-58.052165,"84.73,73.50"
2024-05-28_11-25-58.080988,"73.26,67.06"
2024-05-28_11-25-58.113779,"79.70,82.44"
2024-05-28_11-25-58.146552,"100.08,60.65"
2024-05-28_11-25-58.179278,"81.67,74.17"
2024-05-28_11-25-58.212051,"76.18,59.64"
2024-05-28_11-25-58.244808,"80.26,64.24"
2024-05-28_11-25-58.277599,"89.91,82.03"
2024-05-28_11-25-58.306231,"53.30,74.07"
2024-05-28_11-25-58.338987,"72.87,65.86"
2024-05-28_11-25-58.371797,"86.90,72.81"
2024-05-28_11-25-58.404529,"79.39,67.88"
2024-05-28_11-25-58.437309,"81.34,81.02"
2024-05-28_11-25-58.469965,"101.90,64.67"
2024-05-28_11-25-58.502842,"71.47,64.75"
2024-05-28_11-25-58.531743,"74.87,65.57"
2024-05-28_11-25-58.564256,"80.49,69.35"
2024-05-28_11-25-58.597087,"67.87,72.53"
2024-05-28_11-25-58.629876,"62.99,74.90"
2024-05-28_11-25-58.662600,"74.16,65.03"
2024-05-28_11-25-58.695243,"75.89,80.33"
2024-05-28_11-25-58.727970,"76.11,67.81"
2024-05-28_11-25-58.756726,"89.88,74.89"
2024-05-28_11-25-58.789501,"96.77,72.70"
2024-05-28_11-25-58.822252,"68.32,53.36"
2024-05-28_11-25-58.855043,"77.02,68.42"
2024-05-28_11-25-58.887780,"96.24,77.86"
2024-05-28_11-25-58.920649,"63.96,65.63"
2024-05-28_11-25-58.953175,"73.54,74.32"
2024-05-28_11-25-58.982002,"85.88,66.20"
2024-05-28_11-25-59.014813,"76.52,80.25"
2024-05-28_11-25-59.047576,"71.82,74.15"
2024-05-28_11-25-59.080318,"91.85,66.21"
2024-05-28_11-25-59.113060,"86.05,71.51"
2024-05-28_11-25-59.146195,"71.97,60.12"
2024-05-28_11-25-59.178473,"69.82,80.42"
2024-05-28_11-25-59.207312,"83.99,67.56"
2024-05-28_11-25-59.240045,"63.46,68.42"
2024-05-28_11-25-59.272815,"81.15,79.81"
2024-05-28_11-25-59.305568,"71.31,73.95"
2024-05-28_11-25-59.338322,"84.30,73.26"
2024-05-28_11-25-59.371074,"93.38,90.24"
2024-05-28_11-25-59.403751,"74.99,68.77"
2024-05-28_11-25-59.432520,"85.66,74.35"
2024-05-28_11-25-59.465281,"67.00,69.30"
2024-05-28_11-25-59.498084,"62.06,71.94"
2024-05-28_11-25-59.531020,"81.79,68.88"
2024-05-28_11-25-59.563619,"66.97,70.00"
2024-05-28_11-25-59.596468,"77.42,81.21"
2024-05-28_11-25-59.629029,"68.08,75.56"
2024-05-28_11-25-59.657799,"72.91,70.04"
2024-05-28_11-25-59.690601,"103.50,64.23"
2024-05-28_11-25-59.723315,"76.94,81.85"
2024-05-28_11-25-59.756087,"68.83,71.90"
2024-05-28_11-25-59.788850,"84.59,79.38"
2024-05-28_11-25-59.821524,"81.26,66.82"
2024-05-28_11-25-59.854251,"64.89,79.66"
2024-05-28_11-25-59.883092,"72.83,68.54"
2024-05-28_11-25-59.915851,"80.64,73.76"
2024-05-28_11-25-59.948591,"81.09,76.13"
2024-05-28_11-25-59.981512,"80.06,68.41"
2024-05-28_11-26-00.014109,"99.90,73.47"
2024-05-28_11-26-00.046835,"79.45,65.60"
2024-05-28_11-26-00.079539,"66.28,66.95"
2024-05-28_11-26-00.108355,"90.68,79.00"
2024-05-28_11-26-00.141060,"84.01,67.18"
2024-05-28_11-26-00.173791,"68.55,79.65"
2024-05-28_11-26-00.206605,"76.09,75.30"
2024-05-28_11-26-00.239371,"80.47,67.81"
2024-05-28_11-26-00.272071,"78.58,75.66"
2024-05-28_11-26-00.304777,"104.63,69.03"
2024-05-28_11-26-00.333596,"84.77,77.97"
2024-05-28_11-26-00.366506,"75.76,58.44"
2024-05-28_11-26-00.399088,"77.41,62.71"
2024-05-28_11-26-00.431808,"88.94,83.22"
2024-05-28_11-26-00.464585,"58.04,70.96"
2024-05-28_11-26-00.497337,"74.41,72.48"
2024-05-28_11-26-00.530035,"85.90,75.29"
2024-05-28_11-26-00.558784,"72.92,67.22"
2024-05-28_11-26-00.591555,"77.63,82.39"
2024-05-28_11-26-00.624335,"98.70,59.29"
2024-05-28_11-26-00.657095,"77.81,71.11"
2024-05-28_11-26-00.689855,"73.91,67.40"
2024-05-28_11-26-00.722566,"81.97,66.96"
2024-05-28_11-26-00.755297,"92.84,82.91"
2024-05-28_11-26-00.784059,"57.15,77.69"
2024-05-28_11-26-00.816783,"76.40,66.63"
2024-05-28_11-26-00.849563,"86.40,74.72"
2024-05-28_11-26-00.882309,"81.38,68.08"
2024-05-28_11-26-00.915177,"80.90,81.11"
2024-05-28_11-26-00.947860,"100.64,63.43"
2024-05-28_11-26-00.980673,"73.60,69.69"
2024-05-28_11-26-01.009384,"72.43,74.06"
2024-05-28_11-26-01.042153,"80.48,73.65"
2024-05-28_11-26-01.074858,"93.29,72.50"
2024-05-28_11-26-01.107656,"61.76,75.98"
2024-05-28_11-26-01.140387,"72.61,65.80"
2024-05-28_11-26-01.173150,"88.51,80.68"
2024-05-28_11-26-01.205856,"77.10,68.49"
2024-05-28_11-26-01.234567,"80.93,74.44"
2024-05-28_11-26-01.267380,"100.73,66.03"
2024-05-28_11-26-01.300093,"70.75,63.98"
2024-05-28_11-26-01.332900,"74.91,69.54"
2024-05-28_11-26-01.365953,"92.93,79.63"
2024-05-28_11-26-01.401096,"55.85,66.53"
2024-05-28_11-26-01.432809,"65.60,73.95"
2024-05-28_11-26-01.459992,"80.49,66.27"
2024-05-28_11-26-01.493286,"76.01,80.44"
2024-05-28_11-26-01.525351,"74.63,74.55"
2024-05-28_11-26-01.558068,"92.62,67.25"
2024-05-28_11-26-01.590905,"94.63,73.02"
2024-05-28_11-26-01.623718,"71.21,64.63"
2024-05-28_11-26-01.656349,"72.89,66.23"
2024-05-28_11-26-01.685152,"92.60,79.05"
2024-05-28_11-26-01.718373,"54.63,65.93"
2024-05-28_11-26-01.750601,"69.44,78.95"
2024-05-28_11-26-01.783410,"78.84,67.14"
2024-05-28_11-26-01.816168,"61.18,74.86"
2024-05-28_11-26-01.848983,"80.56,74.86"
2024-05-28_11-26-01.881613,"95.39,64.55"
2024-05-28_11-26-01.910333,"84.66,76.29"
2024-05-28_11-26-01.943127,"75.47,65.02"
2024-05-28_11-26-01.975870,"73.77,68.95"
2024-05-28_11-26-02.008629,"90.87,77.19"
2024-05-28_11-26-02.041457,"68.53,65.99"
2024-05-28_11-26-02.074138,"78.59,79.42"
2024-05-28_11-26-02.106845,"80.47,74.76"
2024-05-28_11-26-02.135564,"74.81,69.69"
2024-05-28_11-26-02.168333,"94.41,73.10"
2024-05-28_11-26-02.209111,"90.66,67.68"
2024-05-28_11-26-02.235284,"68.19,69.00"
2024-05-28_11-26-02.266668,"79.96,70.61"
2024-05-28_11-26-02.299414,"87.38,68.29"
2024-05-28_11-26-02.332191,"75.24,79.91"
2024-05-28_11-26-02.361056,"67.89,69.18"
2024-05-28_11-26-02.393605,"78.67,72.96"
2024-05-28_11-26-02.426453,"82.01,74.83"
2024-05-28_11-26-02.459175,"67.51,68.72"
2024-05-28_11-26-02.491926,"104.34,76.96"
2024-05-28_11-26-02.524707,"85.58,68.92"
2024-05-28_11-26-02.557374,"67.43,58.68"
2024-05-28_11-26-02.586137,"83.36,73.66"
2024-05-28_11-26-02.618894,"91.03,67.15"
2024-05-28_11-26-02.651641,"63.29,80.20"
2024-05-28_11-26-02.684387,"68.20,75.07"
2024-05-28_11-26-02.717142,"82.47,66.72"
2024-05-28_11-26-02.749915,"68.11,75.14"
2024-05-28_11-26-02.782670,"88.43,70.66"
2024-05-28_11-26-02.815349,"91.43,75.02"
2024-05-28_11-26-02.844124,"81.74,64.91"
2024-05-28_11-26-02.878692,"72.00,62.51"
2024-05-28_11-26-02.909736,"80.10,80.26"
2024-05-28_11-26-02.942747,"79.57,70.72"
2024-05-28_11-26-02.975750,"62.26,72.29"
2024-05-28_11-26-03.007873,"78.03,73.19"
2024-05-28_11-26-03.040604,"75.53,66.00"
2024-05-28_11-26-03.069428,"82.84,82.63"
2024-05-28_11-26-03.102369,"85.07,64.07"
2024-05-28_11-26-03.134962,"91.16,70.68"
2024-05-28_11-26-03.167748,"78.65,65.79"
2024-05-28_11-26-03.200503,"74.11,62.01"
2024-05-28_11-26-03.233213,"84.23,79.18"
2024-05-28_11-26-03.265897,"67.51,77.52"
2024-05-28_11-26-03.294647,"69.34,66.45"
2024-05-28_11-26-03.327412,"83.22,73.89"
2024-05-28_11-26-03.360370,"85.05,66.86"
2024-05-28_11-26-03.392947,"69.80,82.26"
2024-05-28_11-26-03.425726,"90.50,69.14"
2024-05-28_11-26-03.458413,"81.63,70.77"
2024-05-28_11-26-03.491162,"72.79,68.34"
2024-05-28_11-26-03.519899,"79.82,72.80"
2024-05-28_11-26-03.552694,"90.87,72.73"
2024-05-28_11-26-03.585500,"58.68,75.66"
2024-05-28_11-26-03.618248,"70.27,65.33"
2024-05-28_11-26-03.650926,"89.38,79.67"
2024-05-28_11-26-03.683777,"65.44,67.97"
2024-05-28_11-26-03.717587,"68.25,75.43"
2024-05-28_11-26-03.745237,"106.16,65.20"
2024-05-28_11-26-03.777916,"75.96,70.46"
2024-05-28_11-26-03.810683,"72.55,75.51"
2024-05-28_11-26-03.843459,"90.83,80.72"
2024-05-28_11-26-03.876242,"85.26,66.74"
2024-05-28_11-26-03.908960,"65.25,74.99"
2024-05-28_11-26-03.941641,"80.86,66.35"
2024-05-28_11-26-03.970446,"80.40,80.01"
2024-05-28_11-26-04.003230,"73.72,74.75"
2024-05-28_11-26-04.035941,"93.23,65.19"
2024-05-28_11-26-04.068720,"94.73,71.45"
2024-05-28_11-26-04.101482,"68.91,67.94"
2024-05-28_11-26-04.134166,"76.07,72.17"
2024-05-28_11-26-04.166912,"95.87,78.99"
2024-05-28_11-26-04.195742,"59.75,65.86"
2024-05-28_11-26-04.228482,"73.46,80.22"
2024-05-28_11-26-04.261175,"80.25,67.72"
2024-05-28_11-26-04.293945,"63.25,74.95"
2024-05-28_11-26-04.326762,"78.28,73.70"
2024-05-28_11-26-04.359466,"95.44,63.74"
2024-05-28_11-26-04.392181,"85.08,73.63"
2024-05-28_11-26-04.420928,"74.26,67.75"
2024-05-28_11-26-04.453750,"70.44,68.81"
2024-05-28_11-26-04.486489,"94.79,75.78"
2024-05-28_11-26-04.519245,"63.92,65.59"
2024-05-28_11-26-04.551997,"73.52,79.70"
2024-05-28_11-26-04.584760,"63.26,73.79"
2024-05-28_11-26-04.617405,"75.62,69.59"
2024-05-28_11-26-04.646300,"77.07,69.52"
2024-05-28_11-26-04.679448,"96.09,67.78"
2024-05-28_11-26-04.711760,"75.82,68.00"
2024-05-28_11-26-04.744612,"78.50,70.57"
2024-05-28_11-26-04.777266,"81.41,68.81"
2024-05-28_11-26-04.810143,"90.29,80.39"
2024-05-28_11-26-04.842663,"63.51,68.26"
2024-05-28_11-26-04.873375,"75.92,72.43"
2024-05-28_11-26-04.904256,"71.46,74.75"
2024-05-28_11-26-04.937930,"70.82,67.99"
2024-05-28_11-26-04.969840,"80.30,78.80"
2024-05-28_11-26-05.002540,"93.14,58.34"
2024-05-28_11-26-05.035519,"72.24,67.61"
2024-05-28_11-26-05.067985,"78.53,71.12"
2024-05-28_11-26-05.096757,"86.09,67.89"
2024-05-28_11-26-05.129549,"72.02,80.93"
2024-05-28_11-26-05.162261,"62.02,75.19"
2024-05-28_11-26-05.195296,"78.21,66.41"
2024-05-28_11-26-05.227781,"85.02,74.01"
2024-05-28_11-26-05.260491,"79.04,69.35"
2024-05-28_11-26-05.293165,"87.34,75.70"
2024-05-28_11-26-05.321934,"90.44,62.56"
2024-05-28_11-26-05.354786,"70.12,69.44"
2024-05-28_11-26-05.387471,"79.00,79.01"
2024-05-28_11-26-05.420220,"87.08,72.15"
2024-05-28_11-26-05.452993,"76.31,72.13"
2024-05-28_11-26-05.485750,"71.27,75.16"
2024-05-28_11-26-05.518440,"76.20,65.65"
2024-05-28_11-26-05.547210,"87.23,81.05"
2024-05-28_11-26-05.580037,"76.18,67.18"
2024-05-28_11-26-05.612809,"87.50,71.89"
2024-05-28_11-26-05.645546,"88.59,72.90"
2024-05-28_11-26-05.678253,"69.46,57.72"
2024-05-28_11-26-05.711018,"81.25,79.50"
2024-05-28_11-26-05.743878,"88.48,78.36"
2024-05-28_11-26-05.772468,"65.52,66.59"
2024-05-28_11-26-05.805244,"77.88,74.79"
2024-05-28_11-26-05.838022,"86.13,66.44"
2024-05-28_11-26-05.870814,"72.91,81.33"
2024-05-28_11-26-05.903593,"94.18,70.80"
2024-05-28_11-26-05.939551,"88.21,63.78"
2024-05-28_11-26-05.981292,"77.29,74.17"
2024-05-28_11-26-05.999951,"74.16,65.74"
2024-05-28_11-26-06.030763,"80.37,72.48"
2024-05-28_11-26-06.063528,"79.86,76.69"
2024-05-28_11-26-06.096146,"61.69,65.54"
2024-05-28_11-26-06.128812,"83.00,78.45"
2024-05-28_11-26-06.161568,"68.62,66.92"
2024-05-28_11-26-06.196423,"68.60,76.41"
2024-05-28_11-26-06.223052,"94.60,68.60"
2024-05-28_11-26-06.255758,"86.11,67.22"
2024-05-28_11-26-06.288537,"70.61,66.38"
2024-05-28_11-26-06.321268,"83.83,78.48"
2024-05-28_11-26-06.354061,"80.14,67.06"
2024-05-28_11-26-06.386754,"73.23,75.06"
2024-05-28_11-26-06.420405,"74.62,65.81"
2024-05-28_11-26-06.448335,"81.68,79.27"
2024-05-28_11-26-06.481076,"78.28,74.34"
2024-05-28_11-26-06.513777,"73.39,68.73"
2024-05-28_11-26-06.546507,"97.64,64.76"
2024-05-28_11-26-06.579277,"81.75,71.50"
2024-05-28_11-26-06.612046,"66.06,64.87"
2024-05-28_11-26-06.644754,"84.81,76.12"
2024-05-28_11-26-06.673498,"93.99,66.70"
2024-05-28_11-26-06.706256,"62.72,80.19"
2024-05-28_11-26-06.739050,"69.35,68.46"
2024-05-28_11-26-06.771805,"82.35,72.59"
2024-05-28_11-26-06.804549,"83.85,75.22"
2024-05-28_11-26-06.837257,"66.55,68.70"
2024-05-28_11-26-06.869966,"99.76,74.80"
2024-05-28_11-26-06.898739,"84.19,66.71"
2024-05-28_11-26-06.931603,"64.73,61.11"
2024-05-28_11-26-06.964314,"84.40,77.39"
2024-05-28_11-26-06.997073,"84.16,66.80"
2024-05-28_11-26-07.029869,"65.77,80.36"
2024-05-28_11-26-07.062576,"69.78,74.66"
2024-05-28_11-26-07.095332,"81.17,67.36"
2024-05-28_11-26-07.124043,"81.74,74.91"
2024-05-28_11-26-07.156859,"87.34,68.83"
2024-05-28_11-26-07.189585,"92.21,72.70"
2024-05-28_11-26-07.222329,"80.06,69.21"
2024-05-28_11-26-07.255796,"75.74,66.11"
2024-05-28_11-26-07.287814,"85.64,83.00"
2024-05-28_11-26-07.320510,"72.46,69.76"
2024-05-28_11-26-07.349300,"70.83,71.57"
2024-05-28_11-26-07.382029,"82.07,75.32"
2024-05-28_11-26-07.414986,"73.30,67.17"
2024-05-28_11-26-07.447565,"79.79,80.56"
2024-05-28_11-26-07.480486,"96.58,58.43"
2024-05-28_11-26-07.513089,"80.15,71.03"
2024-05-28_11-26-07.545783,"75.25,65.83"
2024-05-28_11-26-07.574528,"81.04,68.81"
2024-05-28_11-26-07.607270,"93.32,81.89"
2024-05-28_11-26-07.640042,"58.36,75.86"
2024-05-28_11-26-07.672796,"74.60,66.11"
2024-05-28_11-26-07.705578,"85.86,73.83"
2024-05-28_11-26-07.738339,"79.71,68.19"
2024-05-28_11-26-07.771003,"65.63,79.49"
2024-05-28_11-26-07.799756,"96.98,62.78"
2024-05-28_11-26-07.832525,"68.99,64.68"
2024-05-28_11-26-07.865295,"76.96,73.99"
2024-05-28_11-26-07.898126,"84.21,72.73"
2024-05-28_11-26-07.930838,"72.76,72.25"
2024-05-28_11-26-07.963563,"66.41,75.25"
2024-05-28_11-26-07.996327,"75.69,64.95"
2024-05-28_11-26-08.025044,"87.32,80.44"
2024-05-28_11-26-08.057780,"74.23,66.91"
2024-05-28_11-26-08.090532,"87.77,71.05"
2024-05-28_11-26-08.123457,"91.74,77.06"
2024-05-28_11-26-08.156072,"68.80,53.05"
2024-05-28_11-26-08.188972,"77.83,77.52"
2024-05-28_11-26-08.221560,"95.86,77.62"
2024-05-28_11-26-08.250301,"60.56,66.25"
2024-05-28_11-26-08.283071,"73.76,73.31"
2024-05-28_11-26-08.315896,"85.71,66.13"
2024-05-28_11-26-08.348607,"75.13,80.56"
2024-05-28_11-26-08.381334,"84.95,72.79"
2024-05-28_11-26-08.420691,"88.56,64.55"
2024-05-28_11-26-08.447025,"85.34,77.45"
2024-05-28_11-26-08.479695,"72.39,64.43"
2024-05-28_11-26-08.508321,"76.82,71.52"
2024-05-28_11-26-08.541162,"75.67,75.55"
2024-05-28_11-26-08.573836,"58.95,65.84"
2024-05-28_11-26-08.606616,"78.59,78.73"
2024-05-28_11-26-08.639350,"83.60,66.75"
2024-05-28_11-26-08.672060,"72.15,75.78"
2024-05-28_11-26-08.704768,"98.01,71.72"
2024-05-28_11-26-08.733602,"89.36,63.38"
2024-05-28_11-26-08.766308,"74.10,72.65"
2024-05-28_11-26-08.799067,"80.12,71.10"
2024-05-28_11-26-08.831823,"77.56,67.96"
2024-05-28_11-26-19.135439,"71.10,75.13"
2024-05-28_11-26-19.138114,",75.37"
2024-05-28_11-26-19.138753,"74.43,66.08"
2024-05-28_11-26-19.138899,"81.81,79.82"
2024-05-28_11-26-19.138985,"80.00,74.89"
2024-05-28_11-26-19.139091,"70.46,69.76"
2024-05-28_11-26-19.139197,"99.38,66.12"
2024-05-28_11-26-19.139883,".82,70.14"
2024-05-28_11-26-19.140177,"72.73,73.45"
2024-05-28_11-26-19.140350,"88.52,82.05"
2024-05-28_11-26-19.140440,"82.67,66.84"
2024-05-28_11-26-19.140555,"75.03,75.37"
2024-05-28_11-26-19.140623,"74.43,66.08"
2024-05-28_11-26-19.140692,"81.81,79.82"
2024-05-28_11-26-19.140796,"80.00,74.89"
2024-05-28_11-26-19.140890,"70.46,69.76"
2024-05-28_11-26-19.142323,"99.38,66.12"
2024-05-28_11-26-19.142413,"84.12,71.71"
2024-05-28_11-26-24.444565,"65.84,61.98"
2024-05-28_11-26-24.446041,78.46
2024-05-28_11-26-24.446144,"80.51,73.11"
2024-05-28_11-26-24.446260,"74.44,69.26"
2024-05-28_11-26-24.446335,"96.99,76.06"
2024-05-28_11-26-24.446508,"96.38,69.30"
2024-05-28_11-26-24.446730,"71.64,68.78"
2024-05-28_11-26-24.446803,"78.70,56.86"
2024-05-28_11-26-24.446854,".43,60.31"
2024-05-28_11-26-24.446907,"89.20,72.44"
2024-05-28_11-26-24.446960,"65.84,65.71"
2024-05-28_11-26-24.447012,"77.73,78.46"
2024-05-28_11-26-24.447064,"80.51,73.11"
2024-05-28_11-26-24.447115,"74.44,69.26"
2024-05-28_11-26-24.447165,"96.99,76.06"
2024-05-28_11-26-24.447216,"96.38,69.30"
2024-05-28_11-26-24.447267,"71.64,68.78"
2024-05-28_11-26-24.447318,"78.70,56.86"
2024-05-28_11-26-24.447369,"82.97,59.99"
2024-05-28_11-26-24.462081,"89.41,77.96"
2024-05-28_11-26-24.491604,"56.94,68.16"
2024-05-28_11-26-24.520173,"73.48,71.45"
2024-05-28_11-26-24.553317,"83.40,73.00"
2024-05-28_11-26-24.586890,"69.24,68.07"
2024-05-28_11-26-24.618427,"90.44,82.50"
2024-05-28_11-26-24.651224,"90.76,65.14"
2024-05-28_11-26-24.683964,"85.73,62.86"
2024-05-28_11-26-24.716632,"75.52,56.82"
2024-05-28_11-26-24.746716,"78.78,59.07"
2024-05-28_11-26-24.778330,"87.29,75.88"
2024-05-28_11-26-24.810918,"53.39,73.81"
2024-05-28_11-26-24.843711,"71.14,66.00"
2024-05-28_11-26-24.876456,"85.01,71.60"
2024-05-28_11-26-24.909240,"80.45,67.99"
2024-05-28_11-26-24.941898,"68.35,82.37"
2024-05-28_11-26-24.970652,"98.89,71.55"
2024-05-28_11-26-25.003386,"79.32,68.04"
2024-05-28_11-26-25.036165,"73.34,63.24"
2024-05-28_11-26-25.068930,"77.71,57.58"
2024-05-28_11-26-25.101694,"86.25,70.02"
2024-05-28_11-26-25.134523,"58.81,75.07"
2024-05-28_11-26-25.167127,"71.88,64.63"
2024-05-28_11-26-25.195891,"87.20,79.05"
2024-05-28_11-26-25.228633,"78.74,66.60"
2024-05-28_11-26-25.261402,"66.78,76.85"
2024-05-28_11-26-25.294173,"108.70,74.08"
2024-05-28_11-26-25.326932,"81.05,67.67"
2024-05-28_11-26-25.359749,"72.00,65.12"
2024-05-28_11-26-25.392507,"83.22,64.69"
2024-05-28_11-26-25.421125,"83.83,67.42"
2024-05-28_11-26-25.453903,"65.07,74.96"
2024-05-28_11-26-25.486671,"77.70,65.25"
2024-05-28_11-26-25.519485,"81.90,78.15"
2024-05-28_11-26-25.552195,"62.61,74.09"
2024-05-28_11-26-25.584959,"69.56,70.55"
2024-05-28_11-26-25.617705,"106.97,72.90"
2024-05-28_11-26-25.646443,"83.14,71.62"
2024-05-28_11-26-25.679149,"66.84,61.64"
2024-05-28_11-26-25.711919,"82.44,61.63"
2024-05-28_11-26-25.744671,"81.78,66.24"
2024-05-28_11-26-25.777507,"68.42,79.02"
2024-05-28_11-26-25.810227,"74.06,67.00"
2024-05-28_11-26-25.842946,"81.67,72.75"
2024-05-28_11-26-25.875674,"80.85,75.28"
2024-05-28_11-26-25.904466,"78.28,69.52"
2024-05-28_11-26-25.937201,"98.94,77.75"
2024-05-28_11-26-25.970007,"81.34,70.08"
2024-05-28_11-26-26.002725,"66.66,77.18"
2024-05-28_11-26-26.035452,"68.06,66.83"
2024-05-28_11-26-26.068214,"88.87,65.15"
2024-05-28_11-26-26.096882,"76.05,75.72"
2024-05-28_11-26-26.129654,"75.16,66.40"
2024-05-28_11-26-26.162523,"77.18,76.05"
2024-05-28_11-26-26.195252,"80.65,59.13"
2024-05-28_11-26-26.227998,"84.57,67.58"
2024-05-28_11-26-26.260743,"77.57,81.38"
2024-05-28_11-26-26.293449,"77.59,59.14"
2024-05-28_11-26-26.326157,"80.36,57.07"
2024-05-28_11-26-26.354919,"87.42,85.48"
2024-05-28_11-26-26.387657,"70.65,72.03"
2024-05-28_11-26-26.420446,"67.81,72.67"
2024-05-28_11-26-26.453265,"78.85,76.34"
2024-05-28_11-26-26.486071,"75.59,66.87"
2024-05-28_11-26-26.518752,"81.62,78.78"
2024-05-28_11-26-26.551383,"89.47,59.38"
2024-05-28_11-26-26.580238,"79.37,84.08"
2024-05-28_11-26-26.613025,"76.23,82.52"
2024-05-28_11-26-26.645718,"78.70,70.06"
2024-05-28_11-26-26.678529,"88.66,82.47"
2024-05-28_11-26-26.711318,"81.85,80.20"
2024-05-28_11-26-26.744016,"66.94,66.91"
2024-05-28_11-26-26.776657,"82.63,70.32"
2024-05-28_11-26-26.805469,"75.95,69.80"
2024-05-28_11-26-26.838344,"84.58,71.81"
2024-05-28_11-26-26.871050,"91.13,65.34"
2024-05-28_11-26-26.903716,"73.19,77.43"
2024-05-28_11-26-26.936511,"74.13,64.87"
2024-05-28_11-26-26.969228,"79.89,67.71"
