timestamp,EMG
2024-05-28_13-22-01.231148,"77.85,73.70"
2024-05-28_13-22-01.259844,"90.84,65.59"
2024-05-28_13-22-01.292650,"92.60,57.48"
2024-05-28_13-22-01.325388,"63.61,60.34"
2024-05-28_13-22-01.358168,"49.51,64.92"
2024-05-28_13-22-01.390953,"50.93,70.96"
2024-05-28_13-22-01.423674,"74.89,68.27"
2024-05-28_13-22-01.456420,"50.03,78.34"
2024-05-28_13-22-01.485482,"51.05,73.98"
2024-05-28_13-22-01.517882,"78.71,84.07"
2024-05-28_13-22-01.550638,"63.22,72.15"
2024-05-28_13-22-01.583483,"82.16,67.87"
2024-05-28_13-22-01.616232,"83.81,75.37"
2024-05-28_13-22-01.648915,"96.99,63.85"
2024-05-28_13-22-01.681720,"69.04,49.00"
2024-05-28_13-22-01.710354,"40.82,70.09"
2024-05-28_13-22-01.743168,"56.65,74.54"
2024-05-28_13-22-01.775924,"64.21,68.80"
2024-05-28_13-22-01.808646,"52.50,71.30"
2024-05-28_13-22-01.841539,"55.43,70.19"
2024-05-28_13-22-01.874302,"65.61,78.90"
2024-05-28_13-22-01.906893,"84.61,76.31"
2024-05-28_13-22-01.935638,"67.26,64.63"
2024-05-28_13-22-01.968417,"83.18,74.54"
2024-05-28_13-22-02.001147,"106.39,47.11"
2024-05-28_13-22-02.033909,"57.50,56.40"
2024-05-28_13-22-02.066710,"48.48,72.32"
2024-05-28_13-22-02.099654,"54.98,65.49"
2024-05-28_13-22-02.132144,"68.42,69.78"
2024-05-28_13-22-02.160884,"61.29,67.70"
2024-05-28_13-22-02.193748,"50.07,88.97"
2024-05-28_13-22-02.226832,"77.58,77.43"
2024-05-28_13-22-02.259634,"66.29,70.48"
2024-05-28_13-22-02.292089,"79.90,74.22"
2024-05-28_13-22-02.324720,"91.33,47.34"
2024-05-28_13-22-02.357474,"87.05,57.80"
2024-05-28_13-22-02.390275,"65.88,59.76"
2024-05-28_13-22-02.420942,"53.34,66.61"
2024-05-28_13-22-02.452141,"45.90,68.89"
2024-05-28_13-22-02.485864,"68.37,75.97"
2024-05-28_13-22-02.517285,"55.92,70.37"
2024-05-28_13-22-02.550014,"50.19,72.29"
2024-05-28_13-22-02.582689,"76.56,67.89"
2024-05-28_13-22-02.615386,"73.62,77.70"
2024-05-28_13-22-02.644129,"77.29,75.70"
2024-05-28_13-22-02.676910,"85.75,63.34"
2024-05-28_13-22-02.709684,"87.53,57.21"
2024-05-28_13-22-02.742476,"76.52,46.71"
2024-05-28_13-22-02.775207,"48.26,76.07"
2024-05-28_13-22-02.807923,"51.11,70.03"
2024-05-28_13-22-02.840622,"67.72,66.53"
2024-05-28_13-22-02.869465,"59.22,70.58"
2024-05-28_13-22-02.902181,"49.71,69.17"
2024-05-28_13-22-02.934949,"76.69,91.77"
2024-05-28_13-22-02.967692,"63.56,77.01"
2024-05-28_13-22-03.000442,"68.93,65.90"
2024-05-28_13-22-03.033173,"88.33,72.68"
2024-05-28_13-22-03.065924,"98.91,54.27"
2024-05-28_13-22-03.094656,"59.44,47.37"
2024-05-28_13-22-03.127446,"48.12,71.49"
2024-05-28_13-22-03.160192,"58.54,66.06"
2024-05-28_13-22-03.192985,"72.78,68.58"
2024-05-28_13-22-03.225716,"53.13,77.16"
2024-05-28_13-22-03.258475,"50.37,72.04"
2024-05-28_13-22-03.291120,"69.60,75.93"
2024-05-28_13-22-03.319983,"74.51,64.14"
2024-05-28_13-22-03.352776,"79.96,76.76"
2024-05-28_13-22-03.385409,"83.07,75.82"
2024-05-28_13-22-03.418224,"89.90,64.06"
2024-05-28_13-22-03.450928,"58.18,72.70"
2024-05-28_13-22-03.483672,"54.44,64.84"
2024-05-28_13-22-03.516375,"53.62,74.80"
2024-05-28_13-22-03.545131,"64.68,70.82"
2024-05-28_13-22-03.577990,"57.32,68.07"
2024-05-28_13-22-03.610783,"56.85,74.28"
2024-05-28_13-22-03.643554,"75.91,82.42"
2024-05-28_13-22-03.676242,"60.82,75.25"
2024-05-28_13-22-03.709011,"79.85,74.70"
2024-05-28_13-22-03.741717,"89.92,66.81"
2024-05-28_13-22-03.770375,"92.78,59.13"
2024-05-28_13-22-03.803149,"50.15,63.18"
2024-05-28_13-22-03.835968,"51.99,65.56"
2024-05-28_13-22-03.868712,"50.87,69.32"
2024-05-28_13-22-03.901428,"77.70,66.73"
2024-05-28_13-22-03.934233,"50.49,70.27"
2024-05-28_13-22-03.966937,"50.82,79.48"
2024-05-28_13-22-03.995692,"71.70,67.27"
2024-05-28_13-22-04.028414,"77.67,75.65"
2024-05-28_13-22-04.061183,"80.01,67.37"
2024-05-28_13-22-04.093987,"93.75,60.12"
2024-05-28_13-22-04.126796,"86.33,41.34"
2024-05-28_13-22-04.159466,"58.78,65.59"
2024-05-28_13-22-04.192190,"49.21,70.30"
2024-05-28_13-22-04.220912,"57.18,64.96"
2024-05-28_13-22-04.253681,"71.73,76.98"
2024-05-28_13-22-04.286435,"48.22,71.58"
2024-05-28_13-22-04.319276,"53.27,69.14"
2024-05-28_13-22-04.351978,"91.00,75.50"
2024-05-28_13-22-04.384747,"81.66,65.27"
2024-05-28_13-22-04.417423,"71.71,75.63"
2024-05-28_13-22-04.446224,"87.38,76.00"
2024-05-28_13-22-04.478920,"71.50,67.02"
2024-05-28_13-22-04.511698,"69.45,57.05"
2024-05-28_13-22-04.544594,"57.57,75.26"
2024-05-28_13-22-04.577245,"51.09,66.61"
2024-05-28_13-22-04.610040,"59.64,69.86"
2024-05-28_13-22-04.642684,"57.53,69.48"
2024-05-28_13-22-04.671438,"52.16,81.71"
2024-05-28_13-22-04.704182,"75.36,80.37"
2024-05-28_13-22-04.736969,"60.97,69.58"
2024-05-28_13-22-04.769752,"80.09,73.92"
2024-05-28_13-22-04.802481,"96.20,65.13"
2024-05-28_13-22-04.835262,"76.61,54.83"
2024-05-28_13-22-04.868024,"58.30,74.95"
2024-05-28_13-22-04.900671,"51.15,64.30"
2024-05-28_13-22-04.929444,"51.86,69.86"
2024-05-28_13-22-04.962212,"65.33,67.23"
2024-05-28_13-22-04.994975,"48.63,79.31"
2024-05-28_13-22-05.027745,"52.57,80.69"
2024-05-28_13-22-05.060490,"72.53,76.16"
2024-05-28_13-22-05.093228,"78.28,72.50"
2024-05-28_13-22-05.125907,"88.09,65.44"
2024-05-28_13-22-05.154713,"87.58,59.92"
2024-05-28_13-22-05.187474,"76.61,61.12"
2024-05-28_13-22-05.220237,"52.92,65.66"
2024-05-28_13-22-05.253055,"45.82,68.23"
2024-05-28_13-22-05.285787,"66.82,75.57"
2024-05-28_13-22-05.318450,"54.23,70.65"
2024-05-28_13-22-05.351216,"51.07,72.03"
2024-05-28_13-22-05.379945,"78.75,83.79"
2024-05-28_13-22-05.412792,"75.79,78.32"
2024-05-28_13-22-05.445487,"80.72,74.86"
2024-05-28_13-22-05.478280,"80.18,65.15"
2024-05-28_13-22-05.511023,"54.84,71.69"
2024-05-28_13-22-05.543713,"63.85,65.27"
2024-05-28_13-22-05.576445,"52.38,75.03"
2024-05-28_13-22-05.605183,"49.58,70.73"
2024-05-28_13-22-05.637997,"61.53,67.86"
2024-05-28_13-22-05.670735,"55.33,71.98"
2024-05-28_13-22-05.703493,"53.03,76.30"
2024-05-28_13-22-05.736253,"80.88,72.67"
2024-05-28_13-22-05.769020,"78.99,74.41"
2024-05-28_13-22-05.801712,"85.69,66.96"
2024-05-28_13-22-05.830460,"95.09,34.03"
2024-05-28_13-22-05.863283,"64.17,62.51"
2024-05-28_13-22-05.895962,"48.80,65.43"
2024-05-28_13-22-05.928749,"49.86,69.38"
2024-05-28_13-22-05.961513,"79.00,66.95"
2024-05-28_13-22-05.994230,"51.43,70.38"
2024-05-28_13-22-06.026931,"50.71,79.94"
2024-05-28_13-22-06.055676,"73.45,67.42"
2024-05-28_13-22-06.088422,"63.28,75.37"
2024-05-28_13-22-06.121269,"81.54,67.84"
2024-05-28_13-22-06.154061,"95.39,59.89"
2024-05-28_13-22-06.186836,"71.94,64.61"
2024-05-28_13-22-06.219570,"42.63,65.29"
2024-05-28_13-22-06.252214,"49.34,69.86"
2024-05-28_13-22-06.280958,"55.99,65.39"
2024-05-28_13-22-06.313723,"65.67,77.31"
2024-05-28_13-22-06.346516,"48.29,71.92"
2024-05-28_13-22-06.379250,"55.37,79.96"
2024-05-28_13-22-06.412030,"74.26,77.09"
2024-05-28_13-22-06.444786,"78.11,67.41"
2024-05-28_13-22-06.477481,"75.36,75.58"
2024-05-28_13-22-06.506430,"67.50,76.55"
2024-05-28_13-22-06.539167,"78.56,66.79"
2024-05-28_13-22-06.571736,"56.43,56.31"
2024-05-28_13-22-06.604611,"57.19,74.86"
2024-05-28_13-22-06.637282,"67.86,66.90"
2024-05-28_13-22-06.669990,"57.28,70.03"
2024-05-28_13-22-06.702737,"56.95,70.80"
2024-05-28_13-22-06.731487,"67.61,79.61"
2024-05-28_13-22-06.764241,"92.34,69.92"
2024-05-28_13-22-06.797084,"66.64,68.07"
2024-05-28_13-22-06.829793,"82.38,73.98"
2024-05-28_13-22-06.862604,"101.81,51.49"
2024-05-28_13-22-06.895278,"57.40,57.27"
2024-05-28_13-22-06.927946,"48.02,72.94"
2024-05-28_13-22-06.956707,"51.00,64.46"
2024-05-28_13-22-06.989480,"68.96,69.74"
2024-05-28_13-22-07.022299,"61.67,68.01"
2024-05-28_13-22-07.055025,"49.90,77.96"
2024-05-28_13-22-07.087851,"53.03,77.92"
2024-05-28_13-22-07.120560,"83.30,63.04"
2024-05-28_13-22-07.153308,"80.32,71.82"
2024-05-28_13-22-07.182030,"89.76,65.44"
2024-05-28_13-22-07.214752,"89.69,60.89"
2024-05-28_13-22-07.247535,"74.95,61.32"
2024-05-28_13-22-07.280274,"52.63,65.34"
2024-05-28_13-22-07.313027,"45.76,68.31"
2024-05-28_13-22-07.345774,"65.85,75.66"
2024-05-28_13-22-07.378531,"51.22,69.95"
2024-05-28_13-22-07.407203,"51.17,71.94"
2024-05-28_13-22-07.440000,"77.93,83.18"
2024-05-28_13-22-07.472751,"60.74,76.27"
2024-05-28_13-22-07.505526,"80.79,66.65"
2024-05-28_13-22-07.538319,"75.91,67.63"
2024-05-28_13-22-07.571100,"70.88,50.19"
2024-05-28_13-22-07.603773,"59.44,65.80"
2024-05-28_13-22-07.636566,"51.18,74.94"
2024-05-28_13-22-07.665290,"49.13,70.61"
2024-05-28_13-22-07.698048,"64.82,67.87"
2024-05-28_13-22-07.730751,"54.25,71.46"
2024-05-28_13-22-07.763610,"52.55,79.65"
2024-05-28_13-22-07.796367,"83.08,84.18"
2024-05-28_13-22-07.828970,"79.79,74.25"
2024-05-28_13-22-07.861752,"85.17,66.22"
2024-05-28_13-22-07.890472,"95.57,34.20"
2024-05-28_13-22-07.923295,"76.42,63.18"
2024-05-28_13-22-07.956003,"50.72,65.04"
2024-05-28_13-22-07.988799,"50.22,69.68"
2024-05-28_13-22-08.021602,"66.48,66.77"
2024-05-28_13-22-08.054256,"52.25,70.06"
2024-05-28_13-22-08.086957,"50.65,80.00"
2024-05-28_13-22-08.115778,"73.12,68.21"
2024-05-28_13-22-08.148516,"65.64,69.54"
2024-05-28_13-22-08.181409,"81.28,66.99"
2024-05-28_13-22-08.214118,"95.59,59.41"
2024-05-28_13-22-08.246857,"72.10,65.23"
2024-05-28_13-22-08.279581,"42.90,64.88"
2024-05-28_13-22-08.312337,"50.43,69.89"
2024-05-28_13-22-08.341043,"69.20,65.79"
2024-05-28_13-22-08.373798,"58.03,77.97"
2024-05-28_13-22-08.406538,"49.57,72.33"
2024-05-28_13-22-08.439321,"81.87,73.35"
2024-05-28_13-22-08.472138,"66.78,66.87"
2024-05-28_13-22-08.504795,"74.29,79.24"
2024-05-28_13-22-08.537473,"69.33,69.31"
2024-05-28_13-22-08.566305,"78.50,73.78"
2024-05-28_13-22-08.599069,"62.62,47.36"
2024-05-28_13-22-08.631809,"40.75,70.05"
2024-05-28_13-22-08.664543,"57.23,74.69"
2024-05-28_13-22-08.697317,"75.06,67.65"
2024-05-28_13-22-08.730090,"50.09,70.98"
2024-05-28_13-22-08.762767,"56.80,70.49"
2024-05-28_13-22-08.791541,"89.86,75.92"
2024-05-28_13-22-08.824306,"81.15,75.38"
2024-05-28_13-22-08.857115,"75.45,65.34"
2024-05-28_13-22-08.889811,"84.98,74.54"
2024-05-28_13-22-08.922576,"99.30,46.96"
2024-05-28_13-22-08.955339,"51.64,62.85"
2024-05-28_13-22-08.987996,"48.90,71.05"
2024-05-28_13-22-09.016776,"52.06,65.12"
2024-05-28_13-22-09.049537,"62.92,70.12"
2024-05-28_13-22-09.082347,"54.84,69.78"
2024-05-28_13-22-09.115106,"53.85,83.34"
2024-05-28_13-22-09.147875,"86.07,80.02"
2024-05-28_13-22-09.180566,"65.82,67.48"
2024-05-28_13-22-09.213255,"83.50,72.08"
2024-05-28_13-22-09.242023,"94.70,65.65"
2024-05-28_13-22-09.274772,"60.73,55.08"
2024-05-28_13-22-09.307599,"58.74,74.70"
2024-05-28_13-22-09.340342,"56.80,65.22"
2024-05-28_13-22-09.373102,"59.60,69.29"
2024-05-28_13-22-09.405833,"54.26,76.90"
2024-05-28_13-22-09.438538,"51.16,71.13"
2024-05-28_13-22-09.467290,"69.67,76.98"
2024-05-28_13-22-09.500021,"77.17,62.79"
2024-05-28_13-22-09.532960,"75.87,66.44"
2024-05-28_13-22-09.565630,"67.09,75.97"
2024-05-28_13-22-09.598385,"64.11,64.83"
2024-05-28_13-22-09.631113,"62.40,58.16"
2024-05-28_13-22-09.663822,"55.57,64.97"
2024-05-28_13-22-09.692565,"63.55,75.17"
2024-05-28_13-22-09.725367,"53.11,70.71"
2024-05-28_13-22-09.758049,"51.03,69.60"
2024-05-28_13-22-09.790800,"61.76,91.28"
2024-05-28_13-22-09.823627,"85.28,58.95"
2024-05-28_13-22-09.856341,"67.49,77.32"
2024-05-28_13-22-09.889166,"83.73,60.63"
2024-05-28_13-22-09.917770,"91.96,45.94"
2024-05-28_13-22-09.950586,"66.50,47.34"
2024-05-28_13-22-09.983324,"52.05,74.80"
2024-05-28_13-22-10.019280,"51.33,66.06"
2024-05-28_13-22-10.048939,"59.75,70.15"
2024-05-28_13-22-10.081660,"54.96,69.23"
2024-05-28_13-22-10.114353,"53.94,81.97"
2024-05-28_13-22-10.143067,"83.47,69.98"
2024-05-28_13-22-10.175858,"64.50,66.97"
2024-05-28_13-22-10.208571,"81.39,73.85"
2024-05-28_13-22-10.241362,"99.23,46.91"
2024-05-28_13-22-10.274091,"75.47,60.83"
2024-05-28_13-22-10.306871,"46.75,73.63"
2024-05-28_13-22-10.339536,"52.76,65.20"
2024-05-28_13-22-10.368377,"66.99,69.51"
2024-05-28_13-22-10.401226,"62.00,68.09"
2024-05-28_13-22-10.433854,"50.69,90.63"
2024-05-28_13-22-10.466598,"76.36,76.81"
2024-05-28_13-22-10.499354,"67.03,66.52"
2024-05-28_13-22-10.532123,"78.87,72.64"
2024-05-28_13-22-10.564816,"78.53,68.37"
2024-05-28_13-22-10.593533,"74.72,64.50"
2024-05-28_13-22-10.626334,"54.98,59.89"
2024-05-28_13-22-10.659092,"57.14,64.76"
2024-05-28_13-22-10.691838,"61.23,68.21"
2024-05-28_13-22-10.724593,"58.74,77.04"
2024-05-28_13-22-10.757396,"49.16,70.43"
2024-05-28_13-22-10.790122,"52.97,80.54"
2024-05-28_13-22-10.822806,"76.95,78.46"
2024-05-28_13-22-10.851636,"81.17,75.22"
2024-05-28_13-22-10.884400,"84.86,60.54"
2024-05-28_13-22-10.917111,"78.03,43.53"
2024-05-28_13-22-10.949896,"63.33,58.47"
2024-05-28_13-22-10.982643,"54.05,64.50"
2024-05-28_13-22-11.015349,"52.75,75.44"
2024-05-28_13-22-11.048040,"57.40,70.81"
2024-05-28_13-22-11.076824,"51.22,68.99"
2024-05-28_13-22-11.109658,"59.47,76.02"
2024-05-28_13-22-11.142397,"79.96,67.48"
2024-05-28_13-22-11.175128,"65.24,75.81"
2024-05-28_13-22-11.207892,"84.87,75.63"
2024-05-28_13-22-11.240596,"92.24,46.98"
2024-05-28_13-22-11.273330,"68.00,49.18"
2024-05-28_13-22-11.302104,"50.87,75.11"
2024-05-28_13-22-11.334892,"53.05,66.42"
2024-05-28_13-22-11.367654,"62.80,69.57"
2024-05-28_13-22-11.400498,"58.66,68.92"
2024-05-28_13-22-11.433153,"53.00,83.85"
2024-05-28_13-22-11.465877,"73.47,81.51"
2024-05-28_13-22-11.498580,"65.01,67.50"
2024-05-28_13-22-11.527479,"83.07,74.30"
2024-05-28_13-22-11.560108,"100.81,65.38"
2024-05-28_13-22-11.592863,"61.40,78.01"
2024-05-28_13-22-11.625628,"63.26,71.90"
2024-05-28_13-22-11.658546,"53.51,64.76"
2024-05-28_13-22-11.691162,"67.93,69.14"
2024-05-28_13-22-11.723793,"62.58,68.77"
2024-05-28_13-22-11.752601,"51.08,78.05"
2024-05-28_13-22-11.785347,"79.29,76.52"
2024-05-28_13-22-11.818127,"66.72,66.13"
2024-05-28_13-22-11.850900,"83.35,71.48"
2024-05-28_13-22-11.883660,"93.77,65.28"
2024-05-28_13-22-11.916386,"88.35,64.41"
2024-05-28_13-22-11.949156,"55.64,59.33"
2024-05-28_13-22-11.977917,"55.87,64.90"
2024-05-28_13-22-12.010616,"59.66,68.28"
2024-05-28_13-22-12.043387,"55.97,77.72"
2024-05-28_13-22-12.076153,"49.98,70.43"
2024-05-28_13-22-12.108924,"53.68,76.51"
2024-05-28_13-22-12.141670,"86.36,62.79"
2024-05-28_13-22-12.174314,"83.34,75.17"
2024-05-28_13-22-12.203157,"86.00,76.13"
2024-05-28_13-22-12.235974,"67.68,66.96"
2024-05-28_13-22-12.268644,"62.55,58.44"
2024-05-28_13-22-12.301447,"54.18,64.70"
2024-05-28_13-22-12.334154,"66.69,75.00"
2024-05-28_13-22-12.366932,"55.84,70.89"
2024-05-28_13-22-12.399633,"50.45,69.20"
2024-05-28_13-22-12.428347,"63.28,81.27"
2024-05-28_13-22-12.461124,"80.71,60.59"
2024-05-28_13-22-12.493915,"65.59,75.74"
2024-05-28_13-22-12.526704,"86.32,76.22"
2024-05-28_13-22-12.559446,"91.06,46.07"
2024-05-28_13-22-12.592201,"48.33,71.63"
2024-05-28_13-22-12.624839,"57.63,74.72"
2024-05-28_13-22-12.653602,"68.91,66.99"
2024-05-28_13-22-12.686380,"58.28,69.88"
2024-05-28_13-22-12.719151,"55.42,69.62"
2024-05-28_13-22-12.751916,"67.63,79.59"
2024-05-28_13-22-12.784686,"81.12,69.72"
2024-05-28_13-22-12.817431,"66.66,65.66"
2024-05-28_13-22-12.850086,"83.25,74.01"
2024-05-28_13-22-12.878854,"105.19,60.91"
2024-05-28_13-22-12.911625,"60.54,49.24"
2024-05-28_13-22-12.944410,"48.73,71.79"
2024-05-28_13-22-12.977153,"53.43,65.54"
2024-05-28_13-22-13.009939,"63.71,69.78"
2024-05-28_13-22-13.042705,"53.24,68.38"
2024-05-28_13-22-13.075337,"70.77,83.82"
2024-05-28_13-22-13.104108,"83.39,66.83"
2024-05-28_13-22-13.136918,"68.19,67.64"
2024-05-28_13-22-13.169695,"88.96,72.74"
2024-05-28_13-22-13.202428,"89.47,59.87"
2024-05-28_13-22-13.235189,"60.84,49.36"
2024-05-28_13-22-13.267960,"48.50,71.88"
2024-05-28_13-22-13.300672,"58.78,66.35"
2024-05-28_13-22-13.329316,"62.39,69.02"
2024-05-28_13-22-13.362216,"48.98,78.12"
2024-05-28_13-22-13.394991,"70.31,77.08"
2024-05-28_13-22-13.427676,"84.85,65.07"
2024-05-28_13-22-13.460445,"73.70,68.40"
2024-05-28_13-22-13.493168,"93.16,75.74"
2024-05-28_13-22-13.525860,"100.71,58.86"
2024-05-28_13-22-13.554687,"45.95,45.57"
2024-05-28_13-22-13.587496,"49.69,71.48"
2024-05-28_13-22-13.620174,"53.35,65.49"
2024-05-28_13-22-13.653043,"55.02,78.54"
2024-05-28_13-22-13.685797,"49.25,73.01"
2024-05-28_13-22-13.718486,"55.62,75.78"
2024-05-28_13-22-13.751159,"70.68,65.62"
2024-05-28_13-22-13.779921,"81.83,68.91"
2024-05-28_13-22-13.812651,"84.24,75.00"
2024-05-28_13-22-13.845462,"101.36,58.15"
2024-05-28_13-22-13.878193,"65.10,47.89"
2024-05-28_13-22-13.910947,"39.94,69.67"
2024-05-28_13-22-13.943718,"55.76,74.19"
2024-05-28_13-22-13.976545,"64.46,69.61"
2024-05-28_13-22-14.009124,"48.89,71.20"
2024-05-28_13-22-14.037915,"73.44,74.67"
2024-05-28_13-22-14.070687,"79.27,74.13"
2024-05-28_13-22-14.103385,"80.66,74.03"
2024-05-28_13-22-14.136190,"85.04,62.71"
2024-05-28_13-22-14.168975,"89.92,56.87"
2024-05-28_13-22-14.201812,"67.08,47.91"
2024-05-28_13-22-14.234508,"49.29,75.24"
2024-05-28_13-22-14.263218,"51.21,70.29"
2024-05-28_13-22-14.295974,"67.22,68.71"
2024-05-28_13-22-14.328712,"54.32,70.93"
2024-05-28_13-22-14.361507,"53.80,76.65"
2024-05-28_13-22-14.394214,"82.16,71.86"
2024-05-28_13-22-14.427028,"80.91,74.01"
2024-05-28_13-22-14.459644,"89.66,65.22"
2024-05-28_13-22-14.488400,"86.70,53.67"
2024-05-28_13-22-14.521182,"67.02,62.61"
2024-05-28_13-22-14.556292,"51.69,64.88"
2024-05-28_13-22-14.586929,"51.46,69.93"
2024-05-28_13-22-14.620323,"68.81,67.52"
2024-05-28_13-22-14.653494,"73.75,75.93"
2024-05-28_13-22-14.688688,"75.86,83.85"
2024-05-28_13-22-14.714094,"69.20,73.82"
2024-05-28_13-22-14.746815,"79.97,73.36"
2024-05-28_13-22-14.779294,"95.06,66.34"
2024-05-28_13-22-14.812021,"80.87,56.80"
2024-05-28_13-22-14.845479,"65.35,60.18"
2024-05-28_13-22-14.877625,"53.05,65.07"
2024-05-28_13-22-14.910205,"52.06,69.13"
2024-05-28_13-22-14.938947,"66.56,66.87"
2024-05-28_13-22-14.971795,"49.30,79.03"
2024-05-28_13-22-15.004419,"52.85,81.77"
2024-05-28_13-22-15.037194,"76.96,73.70"
2024-05-28_13-22-15.069949,"81.70,72.26"
2024-05-28_13-22-15.102707,"91.37,65.62"
2024-05-28_13-22-15.135486,"78.06,63.79"
2024-05-28_13-22-15.164221,"64.64,60.39"
2024-05-28_13-22-15.196976,"56.63,65.06"
2024-05-28_13-22-15.230817,"62.25,68.31"
2024-05-28_13-22-15.262574,"56.14,76.21"
2024-05-28_13-22-15.295222,"49.73,70.85"
2024-05-28_13-22-15.327978,"52.68,81.76"
2024-05-28_13-22-15.360657,"77.80,74.53"
2024-05-28_13-22-15.389472,"83.76,76.22"
2024-05-28_13-22-15.422200,"86.83,60.86"
2024-05-28_13-22-15.454972,"79.01,61.47"
2024-05-28_13-22-15.487688,"65.51,58.42"
2024-05-28_13-22-15.520469,"53.95,64.38"
2024-05-28_13-22-15.553270,"59.61,75.57"
2024-05-28_13-22-15.585921,"49.57,71.32"
2024-05-28_13-22-15.614670,"51.82,70.38"
2024-05-28_13-22-15.647456,"90.35,77.74"
2024-05-28_13-22-15.680177,"80.08,73.23"
2024-05-28_13-22-15.713005,"76.76,75.32"
2024-05-28_13-22-15.745740,"86.82,61.27"
2024-05-28_13-22-15.778611,"81.79,62.04"
2024-05-28_13-22-15.811167,"45.29,57.37"
2024-05-28_13-22-15.839939,"58.77,77.80"
2024-05-28_13-22-15.872732,"72.98,69.12"
2024-05-28_13-22-15.905488,"50.08,76.39"
2024-05-28_13-22-15.938230,"70.80,70.50"
2024-05-28_13-22-15.971015,"91.79,83.10"
2024-05-28_13-22-16.003780,"70.57,43.11"
2024-05-28_13-22-16.036473,"73.39,46.10"
2024-05-28_13-22-16.065178,"83.38,39.54"
2024-05-28_13-22-16.097950,"78.52,68.53"
2024-05-28_13-22-16.130702,"55.60,63.43"
2024-05-28_13-22-16.163521,"50.25,70.88"
2024-05-28_13-22-16.196245,"61.30,66.32"
2024-05-28_13-22-16.229019,"55.94,71.87"
2024-05-28_13-22-16.261686,"50.54,69.87"
2024-05-28_13-22-16.290437,"92.88,78.32"
2024-05-28_13-22-16.323175,"76.09,75.17"
2024-05-28_13-22-16.355982,"79.56,67.57"
2024-05-28_13-22-16.388731,"90.64,57.15"
2024-05-28_13-22-16.421539,"86.75,64.51"
2024-05-28_13-22-16.454252,"49.88,64.83"
2024-05-28_13-22-16.487014,"50.10,69.99"
2024-05-28_13-22-16.519695,"65.47,67.96"
2024-05-28_13-22-16.548469,"50.34,73.17"
2024-05-28_13-22-16.581255,"65.01,88.23"
2024-05-28_13-22-16.613969,"76.82,65.54"
2024-05-28_13-22-16.646751,"59.40,61.91"
2024-05-28_13-22-16.679531,"63.15,70.68"
2024-05-28_13-22-16.712200,"88.05,42.27"
2024-05-28_13-22-16.744926,"73.64,53.67"
2024-05-28_13-22-16.773703,"54.19,65.03"
2024-05-28_13-22-16.806566,"52.17,74.31"
2024-05-28_13-22-16.839247,"76.63,67.05"
2024-05-28_13-22-16.872007,"48.70,78.73"
2024-05-28_13-22-16.904763,"52.16,72.38"
2024-05-28_13-22-16.937522,"81.35,68.28"
2024-05-28_13-22-16.970191,"76.94,72.09"
2024-05-28_13-22-16.999014,"88.62,65.53"
2024-05-28_13-22-17.031793,"75.80,60.47"
2024-05-28_13-22-17.064515,"75.12,50.86"
2024-05-28_13-22-17.097290,"52.64,64.87"
2024-05-28_13-22-17.130033,"45.12,68.55"
2024-05-28_13-22-17.162747,"63.53,76.46"
2024-05-28_13-22-17.195451,"49.78,70.02"
2024-05-28_13-22-17.224215,"52.64,84.05"
2024-05-28_13-22-17.257065,"80.94,73.39"
2024-05-28_13-22-17.289750,"80.23,75.18"
2024-05-28_13-22-17.322503,"84.77,75.91"
2024-05-28_13-22-17.355307,"90.10,44.19"
2024-05-28_13-22-17.388040,"75.01,60.98"
2024-05-28_13-22-17.420699,"51.18,65.05"
2024-05-28_13-22-17.449508,"68.49,75.70"
2024-05-28_13-22-17.482244,"56.19,70.61"
2024-05-28_13-22-17.515002,"52.42,69.24"
2024-05-28_13-22-17.547776,"62.62,79.17"
2024-05-28_13-22-17.580546,"85.83,58.22"
2024-05-28_13-22-17.617649,"67.96,76.08"
2024-05-28_13-22-17.646065,"88.04,62.13"
2024-05-28_13-22-17.674885,"80.83,65.09"
2024-05-28_13-22-17.707849,"47.87,71.50"
2024-05-28_13-22-17.740325,"60.75,75.08"
2024-05-28_13-22-17.773105,"72.86,68.12"
2024-05-28_13-22-17.805867,"50.12,72.29"
2024-05-28_13-22-17.838540,"79.96,70.62"
2024-05-28_13-22-17.871299,"75.12,79.27"
2024-05-28_13-22-17.900070,"77.19,75.23"
2024-05-28_13-22-17.932848,"80.67,64.31"
2024-05-28_13-22-17.965596,"87.48,59.19"
2024-05-28_13-22-17.998372,"105.33,61.16"
2024-05-28_13-22-18.031173,"50.29,63.25"
2024-05-28_13-22-18.063789,"51.36,70.01"
2024-05-28_13-22-18.096523,"63.36,65.62"
2024-05-28_13-22-18.125429,"59.22,70.56"
2024-05-28_13-22-18.158059,"50.54,69.64"
2024-05-28_13-22-18.190740,"73.10,80.32"
2024-05-28_13-22-18.223540,"78.13,73.28"
2024-05-28_13-22-18.256320,"83.71,66.72"
2024-05-28_13-22-18.289084,"95.45,56.18"
2024-05-28_13-22-18.321778,"88.56,80.33"
2024-05-28_13-22-18.350566,"48.81,64.20"
2024-05-28_13-22-18.383303,"51.71,69.21"
2024-05-28_13-22-18.416125,"76.21,67.03"
2024-05-28_13-22-18.448863,"47.59,69.78"
2024-05-28_13-22-18.481597,"51.86,79.73"
2024-05-28_13-22-18.514284,"78.18,67.38"
2024-05-28_13-22-18.547011,"77.55,73.95"
2024-05-28_13-22-18.575743,"90.89,65.08"
2024-05-28_13-22-18.608536,"80.55,59.44"
2024-05-28_13-22-18.641245,"64.42,60.15"
2024-05-28_13-22-18.674080,"51.68,64.07"
2024-05-28_13-22-18.706859,"46.14,72.50"
2024-05-28_13-22-18.739589,"63.98,66.96"
2024-05-28_13-22-18.772339,"49.09,79.07"
2024-05-28_13-22-18.801037,"53.47,83.50"
2024-05-28_13-22-18.833837,"73.11,73.86"
2024-05-28_13-22-18.866720,"84.51,71.51"
2024-05-28_13-22-18.899356,"92.94,64.53"
2024-05-28_13-22-18.932112,"78.88,56.98"
2024-05-28_13-22-18.964846,"51.58,59.29"
2024-05-28_13-22-18.997505,"57.10,65.67"
2024-05-28_13-22-19.026291,"70.01,68.58"
2024-05-28_13-22-19.059036,"50.00,77.20"
2024-05-28_13-22-19.091883,"52.35,71.05"
2024-05-28_13-22-19.124572,"82.00,76.89"
2024-05-28_13-22-19.157419,"71.65,62.60"
2024-05-28_13-22-19.190061,"89.81,75.64"
2024-05-28_13-22-19.222810,"89.45,61.30"
2024-05-28_13-22-19.251536,"59.50,43.22"
2024-05-28_13-22-19.284276,"49.08,72.18"
2024-05-28_13-22-19.317040,"56.96,65.50"
2024-05-28_13-22-19.349833,"62.36,76.21"
2024-05-28_13-22-19.382609,"49.67,71.98"
2024-05-28_13-22-19.415381,"55.80,78.63"
2024-05-28_13-22-19.448094,"83.53,63.72"
2024-05-28_13-22-19.476773,"83.02,67.82"
2024-05-28_13-22-19.509629,"88.33,75.98"
2024-05-28_13-22-19.542364,"88.06,53.55"
2024-05-28_13-22-19.575083,"61.20,66.32"
2024-05-28_13-22-19.607837,"43.31,69.27"
2024-05-28_13-22-19.640626,"68.93,74.25"
2024-05-28_13-22-19.673340,"55.47,69.98"
2024-05-28_13-22-19.702034,"78.64,76.43"
2024-05-28_13-22-19.734798,"73.54,75.74"
2024-05-28_13-22-19.767696,"72.37,71.20"
2024-05-28_13-22-19.800432,"84.22,75.12"
2024-05-28_13-22-19.833155,"96.43,43.34"
2024-05-28_13-22-19.865949,"62.01,57.04"
2024-05-28_13-22-19.898810,"50.33,65.31"
2024-05-28_13-22-19.932009,"52.29,74.89"
2024-05-28_13-22-19.960259,"59.18,70.33"
2024-05-28_13-22-19.992867,"52.02,70.11"
2024-05-28_13-22-20.025661,"61.51,78.46"
2024-05-28_13-22-20.058388,"89.99,59.16"
2024-05-28_13-22-20.091164,"68.05,78.17"
2024-05-28_13-22-20.123856,"85.06,75.17"
2024-05-28_13-22-20.156592,"94.45,45.65"
2024-05-28_13-22-20.185383,"56.17,55.90"
2024-05-28_13-22-20.218119,"56.45,74.54"
2024-05-28_13-22-20.250871,"63.87,66.74"
2024-05-28_13-22-20.283823,"54.96,70.37"
2024-05-28_13-22-20.316435,"55.85,71.18"
2024-05-28_13-22-20.349135,"66.68,89.23"
2024-05-28_13-22-20.381756,"73.92,72.99"
2024-05-28_13-22-20.410667,"74.93,65.54"
2024-05-28_13-22-20.443333,"86.43,58.66"
2024-05-28_13-22-20.476112,"104.56,61.87"
2024-05-28_13-22-20.508893,"51.32,62.81"
2024-05-28_13-22-20.541676,"51.18,69.95"
2024-05-28_13-22-20.574328,"61.89,66.62"
2024-05-28_13-22-20.607031,"57.25,71.06"
2024-05-28_13-22-20.635794,"51.46,69.76"
2024-05-28_13-22-20.668601,"85.62,76.45"
2024-05-28_13-22-20.701324,"73.69,76.15"
2024-05-28_13-22-20.734207,"90.25,69.00"
2024-05-28_13-22-20.766952,"85.73,56.46"
2024-05-28_13-22-20.799637,"76.01,64.39"
2024-05-28_13-22-20.832314,"47.71,64.18"
2024-05-28_13-22-20.861073,"51.25,68.88"
2024-05-28_13-22-20.893841,"76.74,68.19"
2024-05-28_13-22-20.926665,"48.49,69.80"
2024-05-28_13-22-20.959372,"53.14,89.05"
2024-05-28_13-22-20.992187,"73.10,73.11"
2024-05-28_13-22-21.024858,"78.36,72.71"
2024-05-28_13-22-21.057564,"94.23,64.99"
2024-05-28_13-22-21.086318,"81.22,57.81"
2024-05-28_13-22-21.119103,"55.76,59.62"
2024-05-28_13-22-21.151880,"51.16,64.08"
2024-05-28_13-22-21.184640,"67.66,69.40"
2024-05-28_13-22-21.217370,"61.39,68.01"
2024-05-28_13-22-21.250119,"51.29,78.85"
2024-05-28_13-22-21.282850,"81.93,77.82"
2024-05-28_13-22-21.311572,"69.37,61.70"
2024-05-28_13-22-21.344357,"86.02,71.49"
2024-05-28_13-22-21.377116,"96.79,65.00"
2024-05-28_13-22-21.409907,"59.25,42.16"
2024-05-28_13-22-21.442759,"48.22,72.47"
2024-05-28_13-22-21.475368,"56.21,65.03"
2024-05-28_13-22-21.508108,"62.56,68.84"
2024-05-28_13-22-21.536873,"47.99,77.97"
2024-05-28_13-22-21.569610,"70.57,78.73"
2024-05-28_13-22-21.602376,"84.40,64.87"
2024-05-28_13-22-21.635125,"76.47,67.93"
2024-05-28_13-22-21.667911,"94.92,74.55"
2024-05-28_13-22-21.700677,"75.59,59.02"
2024-05-28_13-22-21.733365,"54.61,63.27"
2024-05-28_13-22-21.762115,"45.58,71.51"
2024-05-28_13-22-21.794842,"67.72,65.55"
2024-05-28_13-22-21.827695,"51.35,77.43"
2024-05-28_13-22-21.860419,"51.28,72.93"
2024-05-28_13-22-21.893199,"90.32,83.47"
2024-05-28_13-22-21.925884,"65.90,71.99"
2024-05-28_13-22-21.958595,"87.66,65.18"
2024-05-28_13-22-21.987360,"86.45,59.82"
2024-05-28_13-22-22.020100,"86.89,57.96"
2024-05-28_13-22-22.052878,"47.88,65.15"
2024-05-28_13-22-22.085653,"44.92,68.21"
2024-05-28_13-22-22.118423,"62.47,75.44"
2024-05-28_13-22-22.151207,"52.04,70.58"
2024-05-28_13-22-22.183907,"52.33,72.40"
2024-05-28_13-22-22.212620,"90.15,82.84"
2024-05-28_13-22-22.245363,"81.40,76.78"
2024-05-28_13-22-22.278106,"86.52,60.82"
2024-05-28_13-22-22.310925,"80.02,64.09"
2024-05-28_13-22-22.343655,"65.76,58.12"
2024-05-28_13-22-22.376463,"55.73,65.15"
2024-05-28_13-22-22.409220,"74.08,75.68"
2024-05-28_13-22-22.437862,"50.76,71.72"
2024-05-28_13-22-22.470651,"53.74,70.22"
2024-05-28_13-22-22.503397,"78.75,76.02"
2024-05-28_13-22-22.536201,"82.72,61.77"
2024-05-28_13-22-22.568916,"83.89,75.63"
2024-05-28_13-22-22.601689,"91.39,77.38"
2024-05-28_13-22-22.634380,"66.69,46.76"
2024-05-28_13-22-22.663098,"42.90,70.13"
2024-05-28_13-22-22.695884,"71.80,74.29"
2024-05-28_13-22-22.728652,"57.59,69.24"
2024-05-28_13-22-22.761426,"80.95,67.70"
2024-05-28_13-22-22.794212,"94.77,78.76"
2024-05-28_13-22-22.826974,"65.55,71.73"
2024-05-28_13-22-22.859673,"84.87,74.93"
2024-05-28_13-22-22.888385,"95.58,62.68"
2024-05-28_13-22-22.921191,"74.53,59.12"
2024-05-28_13-22-22.953913,"48.96,65.15"
2024-05-28_13-22-22.986712,"51.57,74.81"
2024-05-28_13-22-23.019425,"59.20,70.33"
2024-05-28_13-22-23.052201,"52.39,69.94"
2024-05-28_13-22-23.084898,"62.43,77.44"
2024-05-28_13-22-23.117617,"102.50,60.66"
2024-05-28_13-22-23.146379,"69.88,78.07"
2024-05-28_13-22-23.179140,"87.02,75.34"
2024-05-28_13-22-23.211934,"84.37,45.41"
2024-05-28_13-22-23.244683,"56.99,56.61"
2024-05-28_13-22-23.277473,"55.76,74.29"
2024-05-28_13-22-23.310170,"61.46,66.87"
2024-05-28_13-22-23.342858,"52.09,70.50"
2024-05-28_13-22-23.371696,"57.74,71.58"
2024-05-28_13-22-23.404469,"79.85,89.42"
2024-05-28_13-22-23.437192,"69.86,76.22"
2024-05-28_13-22-23.469946,"82.79,65.00"
2024-05-28_13-22-23.502729,"89.52,58.95"
2024-05-28_13-22-23.535456,"64.77,46.30"
2024-05-28_13-22-23.568146,"50.55,76.28"
2024-05-28_13-22-23.596932,"51.03,69.47"
2024-05-28_13-22-23.629688,"66.17,67.52"
2024-05-28_13-22-23.662413,"55.68,71.80"
2024-05-28_13-22-23.695194,"70.08,81.41"
2024-05-28_13-22-23.727976,"70.00,83.05"
2024-05-28_13-22-23.760693,"84.53,74.66"
2024-05-28_13-22-23.793452,"81.06,66.74"
2024-05-28_13-22-23.822151,"56.32,58.27"
2024-05-28_13-22-23.854931,"49.31,75.22"
2024-05-28_13-22-23.887693,"52.31,65.56"
2024-05-28_13-22-23.920556,"62.27,69.02"
2024-05-28_13-22-23.953267,"58.80,69.92"
2024-05-28_13-22-23.985997,"54.41,72.67"
2024-05-28_13-22-24.018642,"86.89,82.09"
2024-05-28_13-22-24.047423,"67.58,69.28"
2024-05-28_13-22-24.080233,"84.87,73.66"
2024-05-28_13-22-24.112971,"98.85,45.80"
2024-05-28_13-22-24.145717,"66.67,71.88"
2024-05-28_13-22-24.178482,"50.94,70.67"
2024-05-28_13-22-24.211234,"65.11,65.52"
2024-05-28_13-22-24.243922,"57.79,70.32"
2024-05-28_13-22-24.272697,"51.15,70.55"
2024-05-28_13-22-24.305442,"76.44,91.38"
2024-05-28_13-22-24.338196,"64.18,73.07"
2024-05-28_13-22-24.370974,"85.15,66.86"
2024-05-28_13-22-24.403727,"96.27,56.38"
2024-05-28_13-22-24.436544,"79.33,72.35"
2024-05-28_13-22-24.469260,"50.53,65.20"
2024-05-28_13-22-24.497914,"51.13,68.92"
2024-05-28_13-22-24.530713,"68.73,67.79"
2024-05-28_13-22-24.563427,"49.81,70.46"
2024-05-28_13-22-24.596465,"53.21,79.23"
2024-05-28_13-22-24.628979,"72.92,70.85"
2024-05-28_13-22-24.661782,"83.39,73.35"
2024-05-28_13-22-24.694435,"97.09,65.14"
2024-05-28_13-22-24.723211,"78.72,65.97"
2024-05-28_13-22-24.755932,"62.79,75.28"
2024-05-28_13-22-24.788725,"52.89,64.48"
2024-05-28_13-22-24.821475,"60.80,72.31"
2024-05-28_13-22-24.854212,"53.65,68.11"
2024-05-28_13-22-24.887020,"52.80,78.44"
2024-05-28_13-22-24.919697,"77.12,77.08"
2024-05-28_13-22-24.948448,"72.74,65.08"
2024-05-28_13-22-24.981206,"89.78,71.63"
2024-05-28_13-22-25.013986,"90.99,67.13"
2024-05-28_13-22-25.046741,"62.96,48.44"
2024-05-28_13-22-25.079501,"51.90,70.22"
2024-05-28_13-22-25.112262,"67.12,65.48"
2024-05-28_13-22-25.145031,"54.27,69.13"
2024-05-28_13-22-25.173734,"49.64,78.51"
2024-05-28_13-22-25.206478,"80.36,75.02"
2024-05-28_13-22-25.239235,"66.20,67.62"
2024-05-28_13-22-25.272036,"80.15,67.23"
2024-05-28_13-22-25.304727,"101.94,59.13"
2024-05-28_13-22-25.337535,"76.30,59.52"
2024-05-28_13-22-25.370222,"44.52,63.92"
2024-05-28_13-22-25.398958,"53.98,69.18"
2024-05-28_13-22-25.431734,"61.62,66.56"
2024-05-28_13-22-25.464460,"48.27,77.92"
2024-05-28_13-22-25.497237,"53.13,73.20"
2024-05-28_13-22-25.530051,"86.51,70.49"
2024-05-28_13-22-25.562779,"79.72,73.05"
2024-05-28_13-22-25.595527,"93.56,65.14"
2024-05-28_13-22-25.624205,"91.17,57.21"
2024-05-28_13-22-25.656991,"53.09,59.63"
2024-05-28_13-22-25.689737,"56.46,65.27"
2024-05-28_13-22-25.722532,"71.27,69.41"
2024-05-28_13-22-25.755262,"49.60,77.44"
2024-05-28_13-22-25.788104,"53.35,71.92"
2024-05-28_13-22-25.820769,"89.07,74.06"
2024-05-28_13-22-25.853452,"66.18,70.61"
2024-05-28_13-22-25.882228,"96.64,75.73"
2024-05-28_13-22-25.915019,"77.97,58.80"
2024-05-28_13-22-25.947800,"50.58,46.32"
2024-05-28_13-22-25.980478,"51.06,71.52"
2024-05-28_13-22-26.013289,"68.47,67.10"
2024-05-28_13-22-26.045984,"49.87,79.71"
2024-05-28_13-22-26.078694,"67.63,77.03"
2024-05-28_13-22-26.107479,"95.59,82.01"
2024-05-28_13-22-26.140231,"67.14,62.56"
2024-05-28_13-22-26.173006,"83.35,48.99"
2024-05-28_13-22-26.205803,"86.60,66.95"
2024-05-28_13-22-26.238560,"61.03,77.46"
2024-05-28_13-22-26.271293,"58.20,66.37"
2024-05-28_13-22-26.304002,"60.89,74.06"
2024-05-28_13-22-26.332743,"55.01,80.56"
2024-05-28_13-22-26.365501,"66.25,72.35"
2024-05-28_13-22-26.398268,"89.79,83.85"
2024-05-28_13-22-26.431026,"80.46,63.58"
2024-05-28_13-22-26.463803,"79.78,76.93"
2024-05-28_13-22-26.496574,"97.42,58.19"
2024-05-28_13-22-26.529215,"54.45,46.17"
2024-05-28_13-22-26.557986,"66.89,74.31"
2024-05-28_13-22-26.590777,"57.70,67.33"
2024-05-28_13-22-26.623523,"68.56,79.77"
2024-05-28_13-22-26.656331,"48.19,75.59"
2024-05-28_13-22-26.689065,"84.02,80.32"
2024-05-28_13-22-26.721847,"88.76,80.49"
2024-05-28_13-22-26.754475,"73.09,54.60"
2024-05-28_13-22-26.783264,"84.52,41.75"
2024-05-28_13-22-26.816012,"70.69,85.40"
2024-05-28_13-22-26.848816,"49.97,68.41"
2024-05-28_13-22-26.881573,"46.35,74.14"
2024-05-28_13-22-26.914342,"69.67,79.32"
2024-05-28_13-22-26.947056,"51.21,70.46"
2024-05-28_13-22-26.979744,"68.23,77.05"
2024-05-28_13-22-27.008507,"96.26,69.61"
2024-05-28_13-22-27.041293,"68.20,66.35"
2024-05-28_13-22-27.074009,"77.01,41.92"
2024-05-28_13-22-27.106831,"96.03,64.95"
2024-05-28_13-22-27.139563,"60.07,59.97"
2024-05-28_13-22-27.172331,"58.08,66.34"
2024-05-28_13-22-27.205012,"69.54,78.38"
2024-05-28_13-22-27.233772,"55.23,74.34"
2024-05-28_13-22-27.266509,"51.62,70.26"
2024-05-28_13-22-27.299307,"86.40,82.51"
2024-05-28_13-22-27.332055,"87.31,61.47"
2024-05-28_13-22-27.364889,"63.92,65.04"
2024-05-28_13-22-27.397579,"82.31,42.47"
2024-05-28_13-22-27.430292,"76.95,55.93"
2024-05-28_13-22-27.459024,"52.24,57.97"
2024-05-28_13-22-27.491778,"57.60,77.89"
2024-05-28_13-22-27.524569,"73.04,70.26"
2024-05-28_13-22-27.557352,"47.59,74.47"
2024-05-28_13-22-27.590091,"72.48,72.54"
2024-05-28_13-22-27.622883,"92.71,83.83"
2024-05-28_13-22-27.655561,"73.09,42.67"
2024-05-28_13-22-27.684285,"81.78,45.19"
2024-05-28_13-22-27.717048,"82.39,61.67"
2024-05-28_13-22-27.749807,"69.75,48.30"
2024-05-28_13-22-27.782589,"54.07,78.10"
2024-05-28_13-22-27.815373,"68.34,75.33"
2024-05-28_13-22-27.848104,"55.12,69.09"
2024-05-28_13-22-27.880842,"83.53,69.24"
2024-05-28_13-22-27.909562,"91.84,83.00"
2024-05-28_13-22-27.942309,"57.94,66.20"
2024-05-28_13-22-27.975113,"75.16,43.06"
2024-05-28_13-22-28.007870,"87.55,47.67"
2024-05-28_13-22-28.040613,"66.81,67.98"
2024-05-28_13-22-28.073343,"54.06,74.95"
2024-05-28_13-22-28.106043,"71.21,67.94"
2024-05-28_13-22-28.134797,"57.10,70.52"
2024-05-28_13-22-28.167534,"54.81,69.97"
2024-05-28_13-22-28.200327,"68.27,80.08"
2024-05-28_13-22-28.233099,"80.97,69.88"
2024-05-28_13-22-28.265903,"68.68,65.44"
2024-05-28_13-22-28.298619,"86.83,74.30"
2024-05-28_13-22-28.331302,"82.80,64.33"
2024-05-28_13-22-28.360119,"45.55,61.82"
2024-05-28_13-22-28.392910,"51.18,70.28"
2024-05-28_13-22-28.425657,"63.17,66.43"
2024-05-28_13-22-28.458436,"55.92,70.69"
2024-05-28_13-22-28.491148,"51.76,70.23"
2024-05-28_13-22-28.523959,"80.66,76.44"
2024-05-28_13-22-28.556569,"63.27,75.07"
2024-05-28_13-22-28.585293,"85.74,65.44"
2024-05-28_13-22-28.618076,"77.09,56.54"
2024-05-28_13-22-28.650849,"66.48,61.78"
2024-05-28_13-22-28.683672,"49.90,64.39"
2024-05-28_13-22-28.716381,"67.21,69.15"
2024-05-28_13-22-28.749139,"62.51,68.53"
2024-05-28_13-22-28.781842,"52.49,83.17"
2024-05-28_13-22-28.814528,"72.26,69.85"
2024-05-28_13-22-28.843354,"65.94,66.99"
2024-05-28_13-22-28.876120,"78.51,72.79"
2024-05-28_13-22-28.909008,"84.68,70.00"
2024-05-28_13-22-28.941643,"61.28,62.29"
2024-05-28_13-22-28.974371,"47.23,71.79"
2024-05-28_13-22-29.007158,"70.08,65.24"
2024-05-28_13-22-29.039838,"59.14,70.72"
2024-05-28_13-22-29.068585,"50.64,69.74"
2024-05-28_13-22-29.101379,"77.51,92.40"
2024-05-28_13-22-29.134151,"69.34,67.63"
2024-05-28_13-22-29.166964,"72.99,65.93"
2024-05-28_13-22-29.199774,"93.37,71.85"
2024-05-28_13-22-29.232598,"81.59,46.50"
2024-05-28_13-22-29.265136,"51.35,63.24"
2024-05-28_13-22-29.293810,"51.43,69.85"
2024-05-28_13-22-29.326679,"78.19,66.67"
2024-05-28_13-22-29.359375,"50.27,70.15"
2024-05-28_13-22-29.392141,"52.05,79.88"
2024-05-28_13-22-29.424949,"70.24,69.05"
2024-05-28_13-22-29.457618,"77.91,73.67"
2024-05-28_13-22-29.490357,"91.36,66.40"
2024-05-28_13-22-29.519075,"82.32,59.05"
2024-05-28_13-22-29.551871,"66.33,59.79"
2024-05-28_13-22-29.584630,"51.31,64.90"
2024-05-28_13-22-29.617430,"52.88,68.72"
2024-05-28_13-22-29.650157,"63.01,67.71"
2024-05-28_13-22-29.682905,"51.37,79.71"
2024-05-28_13-22-29.715568,"69.33,78.24"
2024-05-28_13-22-29.744329,"70.85,62.56"
2024-05-28_13-22-29.777101,"87.31,72.03"
2024-05-28_13-22-29.809902,"97.48,64.50"
2024-05-28_13-22-29.842671,"58.84,42.09"
2024-05-28_13-22-29.875419,"54.79,72.42"
2024-05-28_13-22-29.908209,"68.44,66.86"
2024-05-28_13-22-29.940871,"59.36,70.78"
2024-05-28_13-22-29.969659,"48.30,78.34"
2024-05-28_13-22-30.002566,"70.17,79.45"
2024-05-28_13-22-30.035181,"72.53,78.83"
2024-05-28_13-22-30.070132,"77.43,66.44"
2024-05-28_13-22-30.109809,"96.41,74.68"
2024-05-28_13-22-30.133805,"75.00,41.40"
2024-05-28_13-22-30.167112,"43.27,64.54"
2024-05-28_13-22-30.194845,"52.62,69.25"
2024-05-28_13-22-30.227648,"65.91,65.74"
2024-05-28_13-22-30.260433,"51.08,77.99"
2024-05-28_13-22-30.293260,"51.96,72.80"
2024-05-28_13-22-30.326043,"88.82,86.65"
2024-05-28_13-22-30.358744,"66.29,74.57"
2024-05-28_13-22-30.391373,"88.49,65.55"
2024-05-28_13-22-30.420150,"87.07,59.49"
2024-05-28_13-22-30.452936,"76.60,64.36"
2024-05-28_13-22-30.485681,"53.17,65.51"
2024-05-28_13-22-30.518452,"60.73,67.70"
2024-05-28_13-22-30.552727,"58.14,75.77"
2024-05-28_13-22-30.584093,"49.98,71.53"
2024-05-28_13-22-30.616717,"53.42,83.36"
2024-05-28_13-22-30.645412,"79.59,71.65"
2024-05-28_13-22-30.678142,"87.51,75.95"
2024-05-28_13-22-30.711041,"88.82,60.09"
2024-05-28_13-22-30.743824,"77.06,51.56"
2024-05-28_13-22-30.776694,"60.80,74.02"
2024-05-28_13-22-30.809385,"56.91,64.22"
2024-05-28_13-22-30.842015,"68.80,76.18"
2024-05-28_13-22-30.870673,"48.68,72.46"
2024-05-28_13-22-30.903454,"54.82,81.78"
2024-05-28_13-22-30.936317,"94.57,67.30"
2024-05-28_13-22-30.969051,"88.42,70.62"
2024-05-28_13-22-31.001825,"88.16,74.57"
2024-05-28_13-22-31.034507,"89.30,50.37"
2024-05-28_13-22-31.067190,"66.65,65.99"
2024-05-28_13-22-31.099857,"43.32,68.46"
2024-05-28_13-22-31.128710,"66.49,74.64"
2024-05-28_13-22-31.161433,"53.34,70.97"
2024-05-28_13-22-31.194181,"52.37,71.73"
2024-05-28_13-22-31.226967,"80.36,83.37"
2024-05-28_13-22-31.259699,"59.70,79.24"
2024-05-28_13-22-31.292562,"84.78,74.73"
2024-05-28_13-22-31.325154,"97.45,42.99"
2024-05-28_13-22-31.353926,"87.66,56.39"
2024-05-28_13-22-31.386750,"52.61,65.13"
2024-05-28_13-22-31.419456,"67.59,74.01"
2024-05-28_13-22-31.452228,"57.32,70.43"
2024-05-28_13-22-31.485068,"52.80,70.08"
2024-05-28_13-22-31.517785,"61.95,77.14"
2024-05-28_13-22-31.550531,"88.34,60.86"
2024-05-28_13-22-31.579225,"70.79,77.06"
2024-05-28_13-22-31.611950,"88.11,60.51"
2024-05-28_13-22-31.644715,"83.89,63.42"
2024-05-28_13-22-31.677433,"64.71,56.57"
2024-05-28_13-22-31.710262,"55.79,73.66"
2024-05-28_13-22-31.743080,"71.68,67.60"
2024-05-28_13-22-31.775777,"48.39,70.83"
2024-05-28_13-22-31.804440,"58.65,70.20"
2024-05-28_13-22-31.837192,"73.17,75.81"
2024-05-28_13-22-31.870340,"80.93,75.48"
2024-05-28_13-22-31.902938,"85.00,62.78"
2024-05-28_13-22-31.935539,"90.24,77.48"
2024-05-28_13-22-31.968270,"57.02,66.09"
2024-05-28_13-22-32.000935,"53.02,75.59"
2024-05-28_13-22-32.029718,"50.51,69.21"
2024-05-28_13-22-32.062496,"63.06,67.84"
2024-05-28_13-22-32.095249,"55.78,70.88"
2024-05-28_13-22-32.128070,"70.15,79.69"
2024-05-28_13-22-32.160793,"80.84,72.66"
2024-05-28_13-22-32.193504,"83.05,73.77"
2024-05-28_13-22-32.226185,"95.49,65.07"
2024-05-28_13-22-32.255033,"68.80,55.97"
2024-05-28_13-22-32.287713,"48.91,75.54"
2024-05-28_13-22-32.320461,"52.95,65.27"
2024-05-28_13-22-32.353289,"60.42,69.49"
2024-05-28_13-22-32.385997,"55.05,68.89"
2024-05-28_13-22-32.418747,"54.39,85.90"
2024-05-28_13-22-32.451456,"74.02,82.44"
2024-05-28_13-22-32.480186,"67.83,61.70"
2024-05-28_13-22-32.512945,"85.04,73.75"
2024-05-28_13-22-32.545805,"87.02,45.82"
2024-05-28_13-22-32.578499,"67.91,71.80"
2024-05-28_13-22-32.611251,"49.75,70.58"
2024-05-28_13-22-32.644086,"67.10,66.20"
2024-05-28_13-22-32.676693,"57.00,69.79"
2024-05-28_13-22-32.705445,"50.86,69.63"
2024-05-28_13-22-32.738229,"78.44,82.32"
2024-05-28_13-22-32.771024,"65.84,69.33"
2024-05-28_13-22-32.803812,"76.48,66.15"
2024-05-28_13-22-32.836491,"94.10,57.03"
2024-05-28_13-22-32.869303,"85.64,64.53"
2024-05-28_13-22-32.902034,"46.60,63.58"
2024-05-28_13-22-32.930746,"52.34,69.86"
2024-05-28_13-22-32.963511,"76.41,67.07"
2024-05-28_13-22-32.996285,"70.76,77.63"
2024-05-28_13-22-33.029033,"53.21,79.38"
2024-05-28_13-22-33.061775,"75.41,68.51"
2024-05-28_13-22-33.094571,"78.04,72.82"
2024-05-28_13-22-33.127256,"96.91,65.62"
2024-05-28_13-22-33.155962,"69.46,57.11"
2024-05-28_13-22-33.188726,"68.79,59.95"
2024-05-28_13-22-33.221482,"52.29,64.84"
2024-05-28_13-22-33.254273,"53.38,69.03"
2024-05-28_13-22-33.287053,"64.32,67.19"
2024-05-28_13-22-33.319801,"51.16,79.75"
2024-05-28_13-22-33.352496,"69.56,81.40"
2024-05-28_13-22-33.381225,"69.61,62.07"
2024-05-28_13-22-33.413975,"88.13,72.25"
2024-05-28_13-22-33.446750,"97.08,65.01"
2024-05-28_13-22-33.479587,"58.98,41.73"
2024-05-28_13-22-33.512279,"48.90,72.71"
2024-05-28_13-22-33.545026,"59.21,65.68"
2024-05-28_13-22-33.577795,"58.75,68.83"
2024-05-28_13-22-33.606513,"49.80,78.35"
2024-05-28_13-22-33.639263,"80.52,75.70"
2024-05-28_13-22-33.671976,"68.76,65.69"
2024-05-28_13-22-33.704851,"78.62,67.59"
2024-05-28_13-22-33.737622,"99.51,75.50"
2024-05-28_13-22-33.770326,"74.49,40.55"
2024-05-28_13-22-33.802998,"43.14,64.10"
2024-05-28_13-22-33.831876,"53.92,69.83"
2024-05-28_13-22-33.864562,"63.16,65.93"
2024-05-28_13-22-33.897261,"50.75,77.69"
2024-05-28_13-22-33.930024,"52.36,73.43"
2024-05-28_13-22-33.962774,"86.88,70.96"
2024-05-28_13-22-33.995581,"59.26,71.90"
2024-05-28_13-22-34.028267,"98.42,68.64"
2024-05-28_13-22-34.060976,"77.53,59.81"
2024-05-28_13-22-34.089724,"78.41,60.46"
2024-05-28_13-22-34.122632,"55.67,65.47"
2024-05-28_13-22-34.155284,"62.29,68.03"
2024-05-28_13-22-34.188143,"56.77,76.07"
2024-05-28_13-22-34.220807,"50.52,71.83"
2024-05-28_13-22-34.253502,"53.70,83.71"
2024-05-28_13-22-34.286228,"79.62,71.47"
2024-05-28_13-22-34.315077,"85.25,75.86"
2024-05-28_13-22-34.347735,"87.84,60.59"
2024-05-28_13-22-34.380658,"78.91,60.20"
2024-05-28_13-22-34.413403,"54.26,58.04"
2024-05-28_13-22-34.446091,"57.29,65.31"
2024-05-28_13-22-34.478768,"73.57,75.28"
2024-05-28_13-22-34.511487,"49.75,71.22"
2024-05-28_13-22-34.540334,"55.11,70.66"
2024-05-28_13-22-34.573120,"80.04,76.31"
2024-05-28_13-22-34.605817,"82.57,61.79"
2024-05-28_13-22-34.638617,"88.06,75.43"
2024-05-28_13-22-34.671366,"102.52,57.40"
2024-05-28_13-22-34.704069,"53.05,47.59"
2024-05-28_13-22-34.736768,"44.89,69.63"
2024-05-28_13-22-34.765534,"70.76,73.97"
2024-05-28_13-22-34.798310,"56.42,69.24"
2024-05-28_13-22-34.831120,"50.68,71.68"
2024-05-28_13-22-34.863871,"74.89,76.29"
2024-05-28_13-22-34.896619,"65.90,71.29"
2024-05-28_13-22-34.929364,"85.63,74.99"
2024-05-28_13-22-34.962021,"93.83,43.36"
2024-05-28_13-22-34.990760,"68.68,58.46"
2024-05-28_13-22-35.023533,"58.53,66.56"
2024-05-28_13-22-35.056450,"54.28,75.07"
2024-05-28_13-22-35.089129,"59.48,69.99"
2024-05-28_13-22-35.121887,"53.30,69.33"
2024-05-28_13-22-35.154579,"59.76,74.43"
2024-05-28_13-22-35.187315,"85.01,81.30"
2024-05-28_13-22-35.216034,"71.75,73.37"
2024-05-28_13-22-35.248824,"86.11,75.04"
2024-05-28_13-22-35.281604,"84.16,45.86"
2024-05-28_13-22-35.314341,"56.85,56.03"
2024-05-28_13-22-35.347141,"57.98,73.78"
2024-05-28_13-22-35.379880,"60.88,66.67"
2024-05-28_13-22-35.412608,"53.47,70.19"
2024-05-28_13-22-35.441295,"56.64,70.33"
2024-05-28_13-22-35.474163,"81.29,93.35"
2024-05-28_13-22-35.506909,"71.60,73.19"
2024-05-28_13-22-35.539654,"82.36,64.42"
2024-05-28_13-22-35.572395,"90.19,58.66"
2024-05-28_13-22-35.605130,"65.75,63.82"
2024-05-28_13-22-35.637793,"60.81,76.36"
2024-05-28_13-22-35.666589,"52.32,69.64"
2024-05-28_13-22-35.699349,"66.63,67.33"
2024-05-28_13-22-35.732120,"54.60,70.49"
2024-05-28_13-22-35.764833,"53.26,69.61"
2024-05-28_13-22-35.797641,"76.05,78.37"
2024-05-28_13-22-35.830383,"79.50,73.57"
2024-05-28_13-22-35.863084,"92.50,65.15"
2024-05-28_13-22-35.891864,"95.72,59.29"
2024-05-28_13-22-35.924634,"57.43,62.44"
2024-05-28_13-22-35.957325,"52.02,65.20"
2024-05-28_13-22-35.990111,"64.35,69.67"
2024-05-28_13-22-36.022886,"61.52,69.05"
2024-05-28_13-22-36.055619,"76.33,75.84"
2024-05-28_13-22-36.088315,"81.37,85.12"
2024-05-28_13-22-36.117021,"65.84,61.38"
2024-05-28_13-22-36.149869,"83.95,72.34"
2024-05-28_13-22-36.182597,"105.31,68.35"
2024-05-28_13-22-36.215445,"59.97,58.84"
2024-05-28_13-22-36.248114,"50.14,72.05"
2024-05-28_13-22-36.280884,"54.04,65.77"
2024-05-28_13-22-36.313556,"61.49,69.49"
2024-05-28_13-22-36.342344,"51.23,68.51"
2024-05-28_13-22-36.375108,"70.70,86.03"
2024-05-28_13-22-36.407965,"84.59,79.86"
2024-05-28_13-22-36.440611,"71.25,67.46"
2024-05-28_13-22-36.473500,"94.83,72.43"
2024-05-28_13-22-36.506152,"84.77,45.84"
2024-05-28_13-22-36.538845,"47.34,62.93"
2024-05-28_13-22-36.567587,"51.65,69.71"
2024-05-28_13-22-36.600404,"64.99,67.58"
2024-05-28_13-22-36.633099,"49.54,69.45"
2024-05-28_13-22-36.665897,"52.32,79.63"
2024-05-28_13-22-36.698620,"87.70,84.19"
2024-05-28_13-22-36.731400,"63.67,70.66"
2024-05-28_13-22-36.764091,"89.77,65.51"
2024-05-28_13-22-36.792876,"93.64,60.40"
2024-05-28_13-22-36.825634,"77.88,81.08"
2024-05-28_13-22-36.858399,"47.98,63.98"
2024-05-28_13-22-36.891150,"52.84,69.71"
2024-05-28_13-22-36.924162,"67.82,67.04"
2024-05-28_13-22-36.956722,"50.08,79.11"
2024-05-28_13-22-36.989363,"54.37,73.45"
2024-05-28_13-22-37.018104,"85.68,71.24"
2024-05-28_13-22-37.050855,"72.46,72.12"
2024-05-28_13-22-37.083634,"95.17,69.25"
2024-05-28_13-22-37.116396,"58.05,54.93"
2024-05-28_13-22-37.149239,"63.06,73.78"
2024-05-28_13-22-37.181928,"56.48,66.04"
2024-05-28_13-22-37.214655,"65.77,68.92"
2024-05-28_13-22-37.243426,"49.50,77.58"
2024-05-28_13-22-37.276110,"54.45,71.75"
2024-05-28_13-22-37.308915,"78.06,76.23"
2024-05-28_13-22-37.341660,"72.14,61.29"
2024-05-28_13-22-37.374406,"97.40,75.05"
2024-05-28_13-22-37.407178,"89.31,62.93"
2024-05-28_13-22-37.439884,"52.36,46.39"
2024-05-28_13-22-37.472590,"50.63,70.60"
2024-05-28_13-22-37.501395,"69.67,66.32"
2024-05-28_13-22-37.534127,"54.18,76.84"
2024-05-28_13-22-37.566883,"51.41,72.36"
2024-05-28_13-22-37.599642,"81.62,75.21"
2024-05-28_13-22-37.632428,"66.07,64.77"
2024-05-28_13-22-37.665123,"85.79,66.45"
2024-05-28_13-22-37.697876,"98.62,60.44"
2024-05-28_13-22-37.726626,"62.48,58.72"
2024-05-28_13-22-37.759401,"51.25,65.15"
2024-05-28_13-22-37.792167,"62.72,68.87"
2024-05-28_13-22-37.824931,"58.16,75.96"
2024-05-28_13-22-37.857722,"50.81,71.02"
2024-05-28_13-22-37.890453,"54.34,71.75"
2024-05-28_13-22-37.923170,"80.71,67.46"
2024-05-28_13-22-37.951911,"83.03,75.07"
2024-05-28_13-22-37.984697,"89.73,61.28"
2024-05-28_13-22-38.017454,"80.04,58.50"
2024-05-28_13-22-38.050245,"54.98,57.89"
2024-05-28_13-22-38.083031,"57.43,67.08"
2024-05-28_13-22-38.115696,"71.11,75.82"
2024-05-28_13-22-38.148370,"50.07,70.58"
2024-05-28_13-22-38.177225,"54.52,71.46"
2024-05-28_13-22-38.209920,"80.64,92.16"
2024-05-28_13-22-38.242703,"84.43,62.49"
2024-05-28_13-22-38.275454,"86.27,75.43"
2024-05-28_13-22-38.308211,"91.13,78.39"
2024-05-28_13-22-38.341035,"65.34,46.47"
2024-05-28_13-22-38.373675,"41.05,69.81"
2024-05-28_13-22-38.402413,"71.52,75.01"
2024-05-28_13-22-38.435204,"58.33,68.60"
2024-05-28_13-22-38.467964,"50.51,71.68"
2024-05-28_13-22-38.500696,"74.92,79.83"
2024-05-28_13-22-38.533452,"69.06,79.60"
2024-05-28_13-22-38.566188,"82.19,73.82"
2024-05-28_13-22-38.598915,"93.33,64.45"
2024-05-28_13-22-38.627678,"73.80,37.27"
2024-05-28_13-22-38.660430,"50.16,64.95"
2024-05-28_13-22-38.693236,"54.02,74.87"
2024-05-28_13-22-38.725963,"59.27,70.29"
2024-05-28_13-22-38.758724,"52.85,69.12"
2024-05-28_13-22-38.791485,"61.03,75.12"
2024-05-28_13-22-38.824208,"95.23,81.38"
2024-05-28_13-22-38.852921,"68.95,76.07"
2024-05-28_13-22-38.885682,"89.40,61.55"
2024-05-28_13-22-38.918499,"83.70,45.09"
2024-05-28_13-22-38.951232,"57.12,55.40"
2024-05-28_13-22-38.983993,"55.38,73.59"
2024-05-28_13-22-39.016773,"74.67,67.53"
2024-05-28_13-22-39.049473,"49.89,70.54"
2024-05-28_13-22-39.078175,"75.89,71.30"
2024-05-28_13-22-39.110943,"85.52,65.75"
2024-05-28_13-22-39.143720,"81.93,74.69"
2024-05-28_13-22-39.176485,"86.01,62.89"
2024-05-28_13-22-39.209291,"90.48,63.49"
2024-05-28_13-22-39.242004,"66.76,46.59"
2024-05-28_13-22-39.274687,"49.83,75.58"
2024-05-28_13-22-39.303566,"64.87,70.20"
2024-05-28_13-22-39.336318,"57.49,68.82"
2024-05-28_13-22-39.368995,"57.33,71.85"
2024-05-28_13-22-39.401762,"77.02,74.59"
2024-05-28_13-22-39.434527,"60.77,72.40"
2024-05-28_13-22-39.467299,"81.88,61.29"
2024-05-28_13-22-39.499984,"89.78,45.61"
2024-05-28_13-22-39.528680,"72.31,64.58"
2024-05-28_13-22-39.561459,"55.90,76.46"
2024-05-28_13-22-39.594279,"67.19,66.56"
2024-05-28_13-22-39.627011,"57.77,70.20"
2024-05-28_13-22-39.659760,"56.69,70.53"
2024-05-28_13-22-39.692511,"68.75,80.34"
2024-05-28_13-22-39.725254,"81.82,69.77"
2024-05-28_13-22-39.757910,"69.04,66.54"
2024-05-28_13-22-39.786723,"87.41,58.42"
2024-05-28_13-22-39.819484,"90.71,45.29"
2024-05-28_13-22-39.852254,"50.16,62.36"
2024-05-28_13-22-39.885058,"50.26,70.57"
2024-05-28_13-22-39.917864,"62.66,66.75"
2024-05-28_13-22-39.950492,"55.34,71.42"
2024-05-28_13-22-39.983272,"51.93,70.26"
2024-05-28_13-22-40.012028,"85.49,88.79"
2024-05-28_13-22-40.044736,"76.27,76.66"
2024-05-28_13-22-40.077515,"84.99,65.57"
2024-05-28_13-22-40.110254,"62.43,72.59"
2024-05-28_13-22-40.143074,"59.90,74.77"
2024-05-28_13-22-40.175824,"51.54,65.05"
2024-05-28_13-22-40.208472,"49.56,69.69"
2024-05-28_13-22-40.237247,"67.48,68.92"
2024-05-28_13-22-40.270037,"50.03,70.48"
2024-05-28_13-22-40.302755,"69.74,88.50"
2024-05-28_13-22-40.335551,"81.87,78.53"
2024-05-28_13-22-40.368307,"81.43,72.97"
2024-05-28_13-22-40.401090,"99.01,65.16"
2024-05-28_13-22-40.433736,"62.06,58.88"
2024-05-28_13-22-40.462530,"65.15,74.18"
2024-05-28_13-22-40.495266,"53.07,64.40"
2024-05-28_13-22-40.528002,"65.68,69.92"
2024-05-28_13-22-40.560802,"55.98,69.20"
2024-05-28_13-22-40.593558,"53.69,90.26"
2024-05-28_13-22-40.626291,"76.00,77.46"
2024-05-28_13-22-40.658997,"69.44,64.80"
2024-05-28_13-22-40.687750,"89.32,71.42"
2024-05-28_13-22-40.720501,"78.95,55.54"
2024-05-28_13-22-40.753278,"64.76,51.14"
2024-05-28_13-22-40.786105,"49.77,71.10"
2024-05-28_13-22-40.818819,"72.81,65.89"
2024-05-28_13-22-40.851584,"57.37,69.71"
2024-05-28_13-22-40.884215,"49.41,78.50"
2024-05-28_13-22-40.913021,"80.48,74.63"
2024-05-28_13-22-40.945787,"64.82,70.83"
2024-05-28_13-22-40.978561,"79.73,66.19"
2024-05-28_13-22-41.011314,"91.40,59.20"
2024-05-28_13-22-41.044082,"87.86,58.26"
2024-05-28_13-22-41.076858,"46.40,63.73"
2024-05-28_13-22-41.109579,"48.72,71.26"
2024-05-28_13-22-41.138274,"73.01,67.00"
2024-05-28_13-22-41.171016,"47.98,77.90"
2024-05-28_13-22-41.203825,"54.33,71.67"
2024-05-28_13-22-41.236636,"76.25,69.72"
2024-05-28_13-22-41.269354,"80.22,71.17"
2024-05-28_13-22-41.302386,"93.72,64.83"
2024-05-28_13-22-41.334840,"66.66,58.57"
2024-05-28_13-22-41.363576,"68.77,59.43"
2024-05-28_13-22-41.396282,"55.51,64.87"
2024-05-28_13-22-41.429105,"58.05,68.13"
2024-05-28_13-22-41.461840,"52.26,77.51"
2024-05-28_13-22-41.494621,"52.70,69.95"
2024-05-28_13-22-41.527375,"81.74,76.99"
2024-05-28_13-22-41.560068,"71.21,62.77"
2024-05-28_13-22-41.588836,"91.97,74.56"
2024-05-28_13-22-41.621601,"93.29,62.15"
2024-05-28_13-22-41.654315,"60.68,45.68"
2024-05-28_13-22-41.687088,"48.45,70.87"
2024-05-28_13-22-41.719855,"55.73,65.05"
2024-05-28_13-22-41.752595,"60.80,77.14"
2024-05-28_13-22-41.785289,"49.88,71.94"
2024-05-28_13-22-41.814007,"71.92,76.26"
2024-05-28_13-22-41.846856,"66.34,65.18"
2024-05-28_13-22-41.879567,"85.90,66.45"
2024-05-28_13-22-41.912348,"94.45,74.77"
2024-05-28_13-22-41.945167,"74.47,63.74"
2024-05-28_13-22-41.977873,"48.48,64.71"
2024-05-28_13-22-42.010584,"45.32,68.02"
2024-05-28_13-22-42.039292,"63.31,75.51"
2024-05-28_13-22-42.072039,"49.64,70.21"
2024-05-28_13-22-42.104849,"52.74,71.51"
2024-05-28_13-22-42.137638,"105.00,77.11"
2024-05-28_13-22-42.170409,"78.38,77.06"
2024-05-28_13-22-42.203175,"86.00,74.45"
2024-05-28_13-22-42.235860,"79.51,43.14"
2024-05-28_13-22-42.264583,"63.17,57.97"
2024-05-28_13-22-42.297379,"54.84,64.18"
2024-05-28_13-22-42.330131,"61.03,75.14"
2024-05-28_13-22-42.362862,"51.41,70.70"
2024-05-28_13-22-42.395630,"53.21,70.55"
2024-05-28_13-22-42.428415,"80.66,89.72"
2024-05-28_13-22-42.461165,"73.18,61.21"
2024-05-28_13-22-42.493862,"82.84,74.28"
2024-05-28_13-22-42.522618,"91.93,61.55"
2024-05-28_13-22-42.555415,"65.47,45.68"
2024-05-28_13-22-42.588177,"39.88,70.18"
2024-05-28_13-22-42.620883,"55.91,73.98"
2024-05-28_13-22-42.653625,"59.36,68.93"
2024-05-28_13-22-42.686362,"49.74,71.19"
2024-05-28_13-22-42.719115,"74.57,77.25"
2024-05-28_13-22-42.747841,"65.00,70.63"
2024-05-28_13-22-42.780649,"84.21,73.62"
2024-05-28_13-22-42.813411,"93.06,62.74"
2024-05-28_13-22-42.846163,"75.53,37.70"
2024-05-28_13-22-42.878885,"48.46,64.69"
2024-05-28_13-22-42.911704,"68.24,75.61"
2024-05-28_13-22-42.944348,"55.06,70.35"
2024-05-28_13-22-42.973091,"51.24,69.60"
2024-05-28_13-22-43.005875,"62.11,77.11"
2024-05-28_13-22-43.038630,"88.22,61.06"
2024-05-28_13-22-43.071415,"71.02,75.14"
2024-05-28_13-22-43.104154,"88.68,76.35"
2024-05-28_13-22-43.136899,"82.68,64.14"
2024-05-28_13-22-43.169581,"51.52,72.50"
2024-05-28_13-22-43.198329,"59.64,74.15"
2024-05-28_13-22-43.231129,"72.72,68.00"
2024-05-28_13-22-43.263895,"48.44,70.65"
2024-05-28_13-22-43.296644,"59.35,70.50"
2024-05-28_13-22-43.329427,"72.00,77.39"
2024-05-28_13-22-43.362154,"80.14,73.40"
2024-05-28_13-22-43.394881,"87.85,64.59"
2024-05-28_13-22-43.423580,"91.41,54.89"
2024-05-28_13-22-43.456355,"67.40,46.95"
2024-05-28_13-22-43.489147,"49.99,75.79"
2024-05-28_13-22-43.521924,"65.35,70.22"
2024-05-28_13-22-43.554677,"55.43,68.36"
2024-05-28_13-22-43.587454,"59.43,73.60"
2024-05-28_13-22-43.620117,"73.67,72.23"
2024-05-28_13-22-43.648880,"63.95,75.50"
2024-05-28_13-22-43.681623,"86.18,74.86"
2024-05-28_13-22-43.714374,"93.60,47.76"
2024-05-28_13-22-43.747165,"71.63,52.67"
2024-05-28_13-22-43.779941,"52.24,74.52"
2024-05-28_13-22-43.812683,"66.76,67.09"
2024-05-28_13-22-43.845420,"56.21,69.73"
2024-05-28_13-22-43.874109,"55.64,70.13"
2024-05-28_13-22-43.906882,"67.09,80.82"
2024-05-28_13-22-43.939631,"73.54,73.15"
2024-05-28_13-22-43.972564,"76.14,64.39"
2024-05-28_13-22-44.005208,"90.61,59.77"
2024-05-28_13-22-44.037967,"81.71,65.62"
2024-05-28_13-22-44.070654,"53.07,62.52"
2024-05-28_13-22-44.099377,"51.54,70.65"
2024-05-28_13-22-44.132151,"71.01,66.79"
2024-05-28_13-22-44.164900,"75.41,78.41"
2024-05-28_13-22-44.197759,"53.32,69.80"
2024-05-28_13-22-44.230467,"75.24,77.20"
2024-05-28_13-22-44.263212,"79.74,73.08"
2024-05-28_13-22-44.295911,"92.71,65.93"
2024-05-28_13-22-44.328633,"98.54,52.16"
2024-05-28_13-22-44.357385,"53.80,62.01"
2024-05-28_13-22-44.390155,"51.98,65.87"
2024-05-28_13-22-44.422926,"66.14,69.00"
2024-05-28_13-22-44.455717,"60.91,68.22"
2024-05-28_13-22-44.488451,"53.22,71.70"
2024-05-28_13-22-44.521151,"78.97,82.86"
2024-05-28_13-22-44.553907,"65.44,60.54"
2024-05-28_13-22-44.582619,"84.32,72.71"
2024-05-28_13-22-44.615445,"106.16,53.26"
2024-05-28_13-22-44.648271,"60.93,54.62"
2024-05-28_13-22-44.680998,"48.49,72.41"
2024-05-28_13-22-44.713713,"70.57,65.84"
2024-05-28_13-22-44.746460,"62.65,69.44"
2024-05-28_13-22-44.779110,"51.83,68.75"
2024-05-28_13-22-44.807902,"80.09,82.57"
2024-05-28_13-22-44.840735,"67.33,67.51"
2024-05-28_13-22-44.873538,"74.70,67.08"
2024-05-28_13-22-44.906267,"96.05,72.85"
2024-05-28_13-22-44.939054,"86.80,64.34"
2024-05-28_13-22-44.971729,"46.82,63.85"
2024-05-28_13-22-45.004416,"53.06,69.94"
2024-05-28_13-22-45.033202,"76.90,66.77"
2024-05-28_13-22-45.065977,"50.18,69.20"
2024-05-28_13-22-45.098705,"52.68,79.97"
2024-05-28_13-22-45.131480,"70.69,68.89"
2024-05-28_13-22-45.164246,"76.68,71.60"
2024-05-28_13-22-45.196996,"80.52,68.93"
2024-05-28_13-22-45.229689,"70.98,75.20"
2024-05-28_13-22-45.258387,"66.46,59.43"
2024-05-28_13-22-45.291189,"54.21,65.10"
2024-05-28_13-22-45.323995,"68.68,69.16"
2024-05-28_13-22-45.356737,"58.41,67.37"
2024-05-28_13-22-45.389502,"51.90,78.92"
2024-05-28_13-22-45.422254,"80.55,78.09"
2024-05-28_13-22-45.454968,"69.74,61.14"
2024-05-28_13-22-45.483707,"90.32,72.00"
2024-05-28_13-22-45.516462,"100.58,70.99"
2024-05-28_13-22-45.549204,"60.19,52.48"
2024-05-28_13-22-45.581990,"50.47,71.72"
2024-05-28_13-22-45.614770,"72.62,65.40"
2024-05-28_13-22-45.647487,"56.92,69.26"
2024-05-28_13-22-45.680344,"49.74,77.93"
2024-05-28_13-22-45.708975,"79.38,74.18"
2024-05-28_13-22-45.741716,"65.33,69.12"
2024-05-28_13-22-45.774491,"81.56,65.35"
2024-05-28_13-22-45.807264,"101.89,59.17"
2024-05-28_13-22-45.840135,"77.21,60.46"
2024-05-28_13-22-45.872770,"43.47,64.18"
2024-05-28_13-22-45.905520,"51.78,69.04"
2024-05-28_13-22-45.934215,"77.01,66.24"
2024-05-28_13-22-45.967010,"50.64,78.26"
2024-05-28_13-22-45.999784,"52.79,72.80"
2024-05-28_13-22-46.032606,"86.60,67.79"
2024-05-28_13-22-46.065297,"80.57,72.14"
2024-05-28_13-22-46.098029,"91.11,64.73"
2024-05-28_13-22-46.130768,"77.23,59.27"
2024-05-28_13-22-46.159484,"68.55,60.38"
2024-05-28_13-22-46.192210,"54.87,66.54"
2024-05-28_13-22-46.225073,"63.53,68.44"
2024-05-28_13-22-46.257829,"55.50,76.77"
2024-05-28_13-22-46.290529,"51.15,71.28"
2024-05-28_13-22-46.323319,"54.09,83.92"
2024-05-28_13-22-46.355999,"79.28,69.13"
2024-05-28_13-22-46.384726,"87.45,74.20"
2024-05-28_13-22-46.417491,"88.12,60.22"
2024-05-28_13-22-46.450268,"78.51,63.57"
2024-05-28_13-22-46.483087,"53.47,57.65"
2024-05-28_13-22-46.515767,"57.76,64.26"
2024-05-28_13-22-46.548537,"72.38,76.24"
2024-05-28_13-22-46.581223,"47.38,71.38"
2024-05-28_13-22-46.613972,"54.52,69.57"
2024-05-28_13-22-46.642741,"77.28,75.87"
2024-05-28_13-22-46.675546,"82.07,61.64"
2024-05-28_13-22-46.708304,"86.91,74.05"
2024-05-28_13-22-46.741044,"102.86,57.00"
2024-05-28_13-22-46.773790,"52.75,48.09"
2024-05-28_13-22-46.806614,"42.75,68.97"
2024-05-28_13-22-46.839184,"71.40,74.55"
2024-05-28_13-22-46.867974,"59.15,70.15"
2024-05-28_13-22-46.900777,"50.14,71.11"
2024-05-28_13-22-46.933577,"75.41,77.71"
2024-05-28_13-22-46.966306,"64.13,71.66"
2024-05-28_13-22-46.999080,"84.61,73.44"
2024-05-28_13-22-47.031807,"95.14,43.39"
2024-05-28_13-22-47.064511,"74.10,37.47"
2024-05-28_13-22-47.093264,"48.62,64.45"
2024-05-28_13-22-47.126057,"52.93,74.89"
2024-05-28_13-22-47.158815,"60.28,70.99"
2024-05-28_13-22-47.191579,"51.33,70.17"
2024-05-28_13-22-47.224333,"78.71,89.17"
2024-05-28_13-22-47.257098,"87.43,59.50"
2024-05-28_13-22-47.289758,"68.94,75.57"
2024-05-28_13-22-47.318552,"87.54,60.54"
2024-05-28_13-22-47.351295,"85.68,45.92"
2024-05-28_13-22-47.384030,"56.05,55.25"
2024-05-28_13-22-47.416852,"54.80,74.28"
2024-05-28_13-22-47.449594,"75.97,68.28"
2024-05-28_13-22-47.482337,"48.76,70.78"
2024-05-28_13-22-47.515032,"58.97,69.84"
2024-05-28_13-22-47.543785,"59.67,77.32"
2024-05-28_13-22-47.576536,"70.40,42.24"
2024-05-28_13-22-47.609314,"80.12,44.10"
2024-05-28_13-22-47.642092,"78.51,40.63"
2024-05-28_13-22-47.674874,"49.82,66.13"
2024-05-28_13-22-47.707613,"52.22,75.25"
2024-05-28_13-22-47.740252,"50.42,70.40"
2024-05-28_13-22-47.769035,"65.56,68.68"
2024-05-28_13-22-47.801856,"54.82,71.46"
2024-05-28_13-22-47.834582,"69.64,79.01"
2024-05-28_13-22-47.867368,"81.31,83.97"
2024-05-28_13-22-47.900150,"81.77,74.76"
2024-05-28_13-22-47.932856,"96.16,47.48"
2024-05-28_13-22-47.965592,"66.90,33.99"
2024-05-28_13-22-47.994305,"48.56,76.01"
2024-05-28_13-22-48.027075,"50.72,66.19"
2024-05-28_13-22-48.059831,"61.96,71.43"
2024-05-28_13-22-48.092600,"54.93,69.61"
2024-05-28_13-22-48.125417,"66.23,71.27"
2024-05-28_13-22-48.158153,"76.52,64.68"
2024-05-28_13-22-48.190846,"65.26,67.18"
2024-05-28_13-22-48.219570,"53.92,62.16"
2024-05-28_13-22-48.252405,"86.02,67.45"
2024-05-28_13-22-48.285170,"53.11,64.02"
2024-05-28_13-22-48.317840,"50.87,73.89"
2024-05-28_13-22-48.350638,"65.67,68.33"
2024-05-28_13-22-48.383410,"50.23,74.51"
2024-05-28_13-22-48.416079,"78.99,82.09"
2024-05-28_13-22-48.444819,"80.61,86.96"
2024-05-28_13-22-48.477589,"69.99,43.33"
2024-05-28_13-22-48.510342,"80.44,49.00"
2024-05-28_13-22-48.543140,"89.64,58.85"
2024-05-28_13-22-48.575882,"61.63,63.93"
2024-05-28_13-22-48.608639,"51.06,66.35"
2024-05-28_13-22-48.641357,"50.72,73.75"
2024-05-28_13-22-48.670086,"66.37,69.74"
2024-05-28_13-22-48.702834,"65.86,76.74"
2024-05-28_13-22-48.735590,"93.72,84.55"
2024-05-28_13-22-48.768370,"56.80,57.40"
2024-05-28_13-22-48.801142,"71.47,40.94"
2024-05-28_13-22-48.833877,"92.30,50.92"
2024-05-28_13-22-48.866610,"54.60,77.20"
2024-05-28_13-22-48.895335,"67.08,76.26"
2024-05-28_13-22-48.928067,"55.99,66.07"
2024-05-28_13-22-48.960863,"62.62,73.70"
2024-05-28_13-22-48.993590,"53.79,71.49"
2024-05-28_13-22-49.026392,"79.32,84.87"
2024-05-28_13-22-49.059151,"86.07,72.90"
2024-05-28_13-22-49.091883,"64.38,52.25"
2024-05-28_13-22-49.124597,"77.23,36.80"
2024-05-28_13-22-49.153351,"84.21,62.76"
2024-05-28_13-22-49.186158,"56.40,68.67"
2024-05-28_13-22-49.218868,"48.59,72.85"
2024-05-28_13-22-49.251659,"71.04,68.89"
2024-05-28_13-22-49.284426,"56.67,73.87"
2024-05-28_13-22-49.317165,"49.95,81.73"
2024-05-28_13-22-49.349836,"85.33,74.89"
2024-05-28_13-22-49.378628,"69.76,64.17"
2024-05-28_13-22-49.411389,"76.02,49.64"
2024-05-28_13-22-49.444180,"82.21,40.59"
2024-05-28_13-22-49.476892,"71.92,64.45"
2024-05-28_13-22-49.509674,"50.68,65.05"
2024-05-28_13-22-49.542391,"52.84,72.67"
2024-05-28_13-22-49.575113,"77.15,68.88"
2024-05-28_13-22-49.603868,"49.26,79.96"
2024-05-28_13-22-49.636620,"51.65,74.11"
2024-05-28_13-22-49.669390,"89.02,70.83"
2024-05-28_13-22-49.702161,"72.82,74.47"
2024-05-28_13-22-49.734932,"85.00,48.45"
2024-05-28_13-22-49.767706,"85.16,62.41"
2024-05-28_13-22-49.800438,"61.92,62.08"
2024-05-28_13-22-49.829130,"56.77,66.33"
2024-05-28_13-22-49.861901,"62.54,71.00"
2024-05-28_13-22-49.894671,"62.25,80.14"
2024-05-28_13-22-49.927411,"49.89,72.02"
2024-05-28_13-22-49.960164,"52.16,81.41"
2024-05-28_13-22-49.992985,"87.54,76.27"
2024-05-28_13-22-50.025618,"77.38,63.42"
2024-05-28_13-22-50.054397,"81.22,67.80"
2024-05-28_13-22-50.087148,"68.74,47.95"
2024-05-28_13-22-50.119929,"50.61,74.31"
2024-05-28_13-22-50.152785,"60.02,66.02"
2024-05-28_13-22-50.185416,"76.41,78.29"
2024-05-28_13-22-50.218179,"53.43,74.53"
2024-05-28_13-22-50.250926,"65.76,85.80"
2024-05-28_13-22-50.279838,"81.80,67.61"
2024-05-28_13-22-50.312440,"76.80,70.13"
2024-05-28_13-22-50.345173,"77.80,42.53"
2024-05-28_13-22-50.377951,"88.16,41.46"
2024-05-28_13-22-50.410739,"62.54,46.37"
2024-05-28_13-22-50.443504,"58.05,71.67"
2024-05-28_13-22-50.476178,"56.01,74.81"
2024-05-28_13-22-50.504913,"66.93,69.36"
2024-05-28_13-22-50.537748,"48.59,71.63"
2024-05-28_13-22-50.570447,"74.74,79.80"
2024-05-28_13-22-50.603194,"82.51,84.40"
2024-05-28_13-22-50.635978,"79.95,74.61"
2024-05-28_13-22-50.668702,"86.84,43.87"
2024-05-28_13-22-50.701421,"88.41,59.64"
2024-05-28_13-22-50.730161,"58.46,48.72"
2024-05-28_13-22-50.762935,"50.25,75.59"
2024-05-28_13-22-50.795847,"62.74,71.28"
2024-05-28_13-22-50.828439,"57.54,69.47"
2024-05-28_13-22-50.861263,"56.10,74.56"
2024-05-28_13-22-50.894004,"88.34,82.01"
2024-05-28_13-22-50.926721,"62.18,78.51"
2024-05-28_13-22-50.955430,"82.07,75.75"
2024-05-28_13-22-50.988183,"98.27,46.58"
2024-05-28_13-22-51.020958,"65.77,58.66"
2024-05-28_13-22-51.053741,"48.89,75.45"
2024-05-28_13-22-51.086501,"51.52,66.55"
2024-05-28_13-22-51.119282,"61.55,71.58"
2024-05-28_13-22-51.151993,"56.32,69.61"
2024-05-28_13-22-51.180695,"70.09,81.10"
2024-05-28_13-22-51.213453,"80.80,64.80"
2024-05-28_13-22-51.246225,"64.83,69.06"
2024-05-28_13-22-51.278989,"84.42,73.93"
2024-05-28_13-22-51.311755,"86.34,46.81"
2024-05-28_13-22-51.344515,"64.49,52.64"
2024-05-28_13-22-51.377230,"49.66,71.59"
2024-05-28_13-22-51.405919,"67.97,66.97"
2024-05-28_13-22-51.438972,"57.39,70.54"
2024-05-28_13-22-51.471520,"50.25,69.52"
2024-05-28_13-22-51.504186,"76.28,94.13"
2024-05-28_13-22-51.536985,"62.75,76.14"
2024-05-28_13-22-51.569784,"78.18,65.59"
2024-05-28_13-22-51.602471,"94.34,56.73"
2024-05-28_13-22-51.631206,"71.52,62.74"
2024-05-28_13-22-51.663971,"48.46,63.13"
2024-05-28_13-22-51.696766,"50.82,70.35"
2024-05-28_13-22-51.729477,"77.28,68.01"
2024-05-28_13-22-51.762238,"47.59,69.85"
2024-05-28_13-22-51.795011,"52.45,78.53"
2024-05-28_13-22-51.827767,"94.27,67.51"
2024-05-28_13-22-51.856441,"62.82,74.23"
2024-05-28_13-22-51.889266,"90.84,65.10"
2024-05-28_13-22-51.921998,"71.82,60.11"
2024-05-28_13-22-51.954759,"64.47,60.07"
2024-05-28_13-22-51.987534,"50.12,64.15"
2024-05-28_13-22-52.020332,"53.40,69.24"
2024-05-28_13-22-52.053096,"62.78,67.28"
2024-05-28_13-22-52.085761,"51.13,78.77"
2024-05-28_13-22-52.114970,"68.66,76.30"
2024-05-28_13-22-52.147259,"52.13,63.16"
2024-05-28_13-22-52.180040,"85.27,70.76"
2024-05-28_13-22-52.212758,"98.94,65.53"
2024-05-28_13-22-52.245541,"52.54,62.37"
2024-05-28_13-22-52.278273,"50.65,72.40"
2024-05-28_13-22-52.310983,"59.76,65.20"
2024-05-28_13-22-52.339788,"65.44,68.37"
2024-05-28_13-22-52.372578,"48.86,77.05"
2024-05-28_13-22-52.405322,"53.71,80.33"
2024-05-28_13-22-52.438112,"75.49,76.14"
2024-05-28_13-22-52.470815,"73.98,69.09"
2024-05-28_13-22-52.503573,"94.50,74.46"
2024-05-28_13-22-52.536244,"92.57,59.61"
2024-05-28_13-22-52.565047,"63.39,45.03"
2024-05-28_13-22-52.597786,"49.35,70.73"
2024-05-28_13-22-52.630494,"57.99,64.72"
2024-05-28_13-22-52.663313,"61.02,76.71"
2024-05-28_13-22-52.696070,"48.96,72.07"
2024-05-28_13-22-52.728828,"71.76,77.00"
2024-05-28_13-22-52.761588,"70.97,64.86"
2024-05-28_13-22-52.790246,"83.79,67.18"
2024-05-28_13-22-52.823116,"89.31,74.34"
2024-05-28_13-22-52.855886,"77.56,50.17"
2024-05-28_13-22-52.888685,"62.24,66.14"
2024-05-28_13-22-52.921342,"43.86,68.64"
2024-05-28_13-22-52.954053,"72.24,74.49"
2024-05-28_13-22-52.986741,"55.48,69.87"
2024-05-28_13-22-53.015515,"51.21,71.32"
2024-05-28_13-22-53.048276,"81.16,74.23"
2024-05-28_13-22-53.081047,"66.91,76.45"
2024-05-28_13-22-53.113829,"85.04,74.35"
2024-05-28_13-22-53.146628,"87.79,42.40"
2024-05-28_13-22-53.179345,"75.26,58.52"
2024-05-28_13-22-53.217196,"52.36,64.44"
2024-05-28_13-22-53.240917,"68.96,75.10"
2024-05-28_13-22-53.273646,"56.83,73.38"
2024-05-28_13-22-53.306328,"71.94,73.70"
2024-05-28_13-22-53.339151,"62.23,77.32"
2024-05-28_13-22-53.371930,"102.38,59.97"
2024-05-28_13-22-53.404631,"69.14,75.64"
2024-05-28_13-22-53.437276,"87.75,60.08"
2024-05-28_13-22-53.466082,"84.58,75.09"
2024-05-28_13-22-53.498870,"56.72,55.19"
2024-05-28_13-22-53.531646,"57.08,74.06"
2024-05-28_13-22-53.564420,"64.05,67.71"
2024-05-28_13-22-53.597127,"51.06,70.03"
2024-05-28_13-22-53.629824,"57.12,70.36"
2024-05-28_13-22-53.662588,"80.92,77.07"
2024-05-28_13-22-53.691293,"69.31,74.97"
2024-05-28_13-22-53.724065,"80.24,62.49"
2024-05-28_13-22-53.756833,"91.07,59.43"
2024-05-28_13-22-53.789587,"66.04,46.89"
2024-05-28_13-22-53.822374,"64.27,75.90"
2024-05-28_13-22-53.855142,"52.53,69.87"
2024-05-28_13-22-53.888059,"67.49,68.01"
2024-05-28_13-22-53.916626,"54.44,70.67"
2024-05-28_13-22-53.949384,"53.97,80.37"
2024-05-28_13-22-53.982096,"74.43,79.00"
2024-05-28_13-22-54.014848,"82.43,72.94"
2024-05-28_13-22-54.047813,"91.59,64.88"
2024-05-28_13-22-54.080421,"76.69,53.50"
2024-05-28_13-22-54.113094,"53.08,62.07"
2024-05-28_13-22-54.141839,"49.75,65.08"
2024-05-28_13-22-54.174574,"67.76,69.68"
2024-05-28_13-22-54.207335,"65.20,67.96"
2024-05-28_13-22-54.240119,"50.97,70.33"
2024-05-28_13-22-54.272919,"69.79,86.33"
2024-05-28_13-22-54.305744,"81.57,61.33"
2024-05-28_13-22-54.338410,"76.22,73.36"
2024-05-28_13-22-54.371068,"102.42,65.43"
2024-05-28_13-22-54.400046,"64.27,51.73"
2024-05-28_13-22-54.432636,"61.08,74.49"
2024-05-28_13-22-54.465399,"52.64,65.15"
2024-05-28_13-22-54.498193,"66.03,68.92"
2024-05-28_13-22-54.530950,"58.32,67.91"
2024-05-28_13-22-54.563614,"52.58,81.38"
2024-05-28_13-22-54.592387,"78.77,75.89"
2024-05-28_13-22-54.625068,"66.95,64.88"
2024-05-28_13-22-54.657857,"90.53,71.58"
2024-05-28_13-22-54.690673,"100.89,56.27"
2024-05-28_13-22-54.723386,"60.23,55.05"
2024-05-28_13-22-54.756235,"48.29,71.89"
2024-05-28_13-22-54.788881,"60.13,66.11"
2024-05-28_13-22-54.821647,"60.61,68.31"
2024-05-28_13-22-54.850391,"49.15,77.62"
2024-05-28_13-22-54.883183,"71.51,78.73"
2024-05-28_13-22-54.915925,"72.66,64.33"
2024-05-28_13-22-54.948658,"76.67,68.23"
2024-05-28_13-22-54.981472,"98.73,75.29"
2024-05-28_13-22-55.014157,"77.42,53.95"
2024-05-28_13-22-55.046932,"57.13,65.05"
2024-05-28_13-22-55.075592,"53.72,70.21"
2024-05-28_13-22-55.108394,"66.24,65.54"
2024-05-28_13-22-55.141148,"52.23,76.94"
2024-05-28_13-22-55.173953,"50.96,72.03"
2024-05-28_13-22-55.206670,"77.98,86.27"
2024-05-28_13-22-55.239426,"63.76,69.81"
2024-05-28_13-22-55.272163,"89.00,67.06"
2024-05-28_13-22-55.301009,"86.37,59.55"
2024-05-28_13-22-55.333718,"56.40,76.44"
2024-05-28_13-22-55.366639,"57.38,65.25"
2024-05-28_13-22-55.399193,"66.98,67.55"
2024-05-28_13-22-55.432017,"59.35,75.32"
2024-05-28_13-22-55.464684,"50.83,70.50"
2024-05-28_13-22-55.497356,"52.74,71.80"
2024-05-28_13-22-55.526146,"85.09,67.28"
2024-05-28_13-22-55.558884,"83.94,77.36"
2024-05-28_13-22-55.591668,"86.42,59.52"
2024-05-28_13-22-55.624436,"78.32,41.82"
2024-05-28_13-22-55.657234,"76.33,73.69"
2024-05-28_13-22-55.689936,"55.75,64.21"
2024-05-28_13-22-55.722736,"62.18,74.72"
2024-05-28_13-22-55.751413,"51.74,71.32"
2024-05-28_13-22-55.784210,"51.69,70.00"
2024-05-28_13-22-55.816955,"64.23,92.24"
2024-05-28_13-22-55.849683,"78.01,63.57"
2024-05-28_13-22-55.882484,"78.38,74.73"
2024-05-28_13-22-55.915191,"90.06,41.00"
2024-05-28_13-22-55.947923,"83.53,60.86"
2024-05-28_13-22-55.976651,"47.20,55.99"
2024-05-28_13-22-56.009478,"56.78,74.24"
2024-05-28_13-22-56.042199,"74.39,68.30"
2024-05-28_13-22-56.074970,"47.77,70.95"
2024-05-28_13-22-56.107747,"58.19,82.56"
2024-05-28_13-22-56.140535,"73.87,82.46"
2024-05-28_13-22-56.173163,"81.90,73.09"
2024-05-28_13-22-56.201912,"85.00,62.51"
2024-05-28_13-22-56.234672,"91.56,38.36"
2024-05-28_13-22-56.267477,"64.32,45.82"
2024-05-28_13-22-56.300225,"48.29,76.01"
2024-05-28_13-22-56.332977,"48.30,71.32"
2024-05-28_13-22-56.365690,"84.19,70.28"
2024-05-28_13-22-56.398473,"56.21,72.01"
2024-05-28_13-22-56.427157,"69.49,76.55"
2024-05-28_13-22-56.459997,"82.09,82.77"
2024-05-28_13-22-56.492699,"82.82,74.06"
2024-05-28_13-22-56.525446,"95.83,65.86"
2024-05-28_13-22-56.558257,"68.21,33.00"
2024-05-28_13-22-56.590951,"64.90,76.01"
2024-05-28_13-22-56.623707,"52.02,66.04"
2024-05-28_13-22-56.652447,"61.49,69.66"
2024-05-28_13-22-56.685207,"57.28,68.93"
2024-05-28_13-22-56.718007,"54.01,83.16"
2024-05-28_13-22-56.750798,"74.43,81.14"
2024-05-28_13-22-56.783526,"64.58,66.33"
2024-05-28_13-22-56.816318,"84.76,74.14"
2024-05-28_13-22-56.849027,"98.22,55.59"
2024-05-28_13-22-56.877695,"65.88,50.95"
2024-05-28_13-22-56.910461,"48.89,72.09"
2024-05-28_13-22-56.943208,"69.81,65.86"
2024-05-28_13-22-56.976050,"60.34,69.85"
2024-05-28_13-22-57.008770,"51.89,69.47"
2024-05-28_13-22-57.041522,"78.94,82.14"
2024-05-28_13-22-57.074270,"66.16,69.35"
2024-05-28_13-22-57.102940,"75.01,66.41"
2024-05-28_13-22-57.135699,"94.30,56.81"
2024-05-28_13-22-57.168495,"84.01,45.38"
2024-05-28_13-22-57.201271,"47.32,63.62"
2024-05-28_13-22-57.234080,"51.07,70.61"
2024-05-28_13-22-57.266855,"66.94,66.38"
2024-05-28_13-22-57.299509,"52.16,69.39"
2024-05-28_13-22-57.328210,"75.94,84.98"
2024-05-28_13-22-57.360983,"79.46,71.61"
2024-05-28_13-22-57.393758,"62.95,74.18"
2024-05-28_13-22-57.426497,"87.40,66.32"
2024-05-28_13-22-57.459312,"91.13,59.57"
2024-05-28_13-22-57.492042,"76.81,58.77"
2024-05-28_13-22-57.524761,"48.22,64.53"
2024-05-28_13-22-57.553470,"51.87,69.31"
2024-05-28_13-22-57.586262,"72.99,66.24"
2024-05-28_13-22-57.618989,"48.88,79.22"
2024-05-28_13-22-57.651818,"52.98,71.94"
2024-05-28_13-22-57.684555,"79.42,67.78"
2024-05-28_13-22-57.717327,"80.94,73.35"
2024-05-28_13-22-57.750015,"93.06,65.25"
2024-05-28_13-22-57.782737,"79.35,73.85"
2024-05-28_13-22-57.811538,"67.23,59.68"
2024-05-28_13-22-57.844285,"57.83,65.79"
2024-05-28_13-22-57.877029,"70.86,68.20"
2024-05-28_13-22-57.909827,"51.39,76.94"
2024-05-28_13-22-57.942540,"53.13,71.38"
2024-05-28_13-22-57.975269,"79.18,75.71"
2024-05-28_13-22-58.008002,"73.94,61.59"
2024-05-28_13-22-58.036832,"94.34,75.21"
2024-05-28_13-22-58.069537,"92.04,62.23"
2024-05-28_13-22-58.102298,"63.37,45.44"
2024-05-28_13-22-58.135058,"49.71,71.39"
2024-05-28_13-22-58.167823,"57.35,64.16"
2024-05-28_13-22-58.200605,"60.53,76.29"
2024-05-28_13-22-58.233248,"49.63,72.13"
2024-05-28_13-22-58.262028,"71.44,77.62"
2024-05-28_13-22-58.294812,"83.61,65.10"
2024-05-28_13-22-58.327553,"85.17,68.70"
2024-05-28_13-22-58.360340,"83.74,76.19"
2024-05-28_13-22-58.393177,"54.15,71.70"
2024-05-28_13-22-58.425840,"66.01,66.51"
2024-05-28_13-22-58.458522,"47.39,67.58"
2024-05-28_13-22-58.487257,"64.96,74.65"
2024-05-28_13-22-58.520036,"53.69,70.04"
2024-05-28_13-22-58.552884,"51.34,71.56"
2024-05-28_13-22-58.585731,"80.25,84.53"
2024-05-28_13-22-58.618425,"69.12,76.89"
2024-05-28_13-22-58.651117,"84.94,74.37"
2024-05-28_13-22-58.683752,"97.93,42.57"
2024-05-28_13-22-58.712539,"88.62,55.78"
2024-05-28_13-22-58.745312,"53.29,64.38"
2024-05-28_13-22-58.778081,"66.54,74.35"
2024-05-28_13-22-58.810888,"56.54,70.41"
2024-05-28_13-22-58.843589,"50.15,69.35"
2024-05-28_13-22-58.876374,"60.31,75.27"
2024-05-28_13-22-58.909036,"82.21,67.44"
2024-05-28_13-22-58.937757,"68.28,77.10"
2024-05-28_13-22-58.970566,"87.38,75.35"
2024-05-28_13-22-59.003371,"83.16,45.78"
2024-05-28_13-22-59.036120,"56.87,55.42"
2024-05-28_13-22-59.068884,"56.92,73.53"
2024-05-28_13-22-59.101616,"60.58,67.61"
2024-05-28_13-22-59.134325,"51.14,70.03"
2024-05-28_13-22-59.163040,"57.19,70.63"
2024-05-28_13-22-59.195850,"80.79,78.13"
2024-05-28_13-22-59.228615,"69.60,75.04"
2024-05-28_13-22-59.261354,"82.51,63.29"
2024-05-28_13-22-59.294120,"89.80,58.31"
2024-05-28_13-22-59.326861,"65.31,46.06"
2024-05-28_13-22-59.359606,"68.84,75.73"
2024-05-28_13-22-59.388365,"44.38,74.11"
2024-05-28_13-22-59.421086,"61.99,66.35"
2024-05-28_13-22-59.453851,"54.68,70.80"
2024-05-28_13-22-59.486629,"53.36,69.83"
2024-05-28_13-22-59.519378,"77.41,75.71"
2024-05-28_13-22-59.552190,"80.06,73.46"
2024-05-28_13-22-59.584881,"91.64,65.67"
2024-05-28_13-22-59.613575,"88.40,56.01"
2024-05-28_13-22-59.646675,"65.83,61.88"
2024-05-28_13-22-59.679211,"50.77,65.09"
2024-05-28_13-22-59.711916,"52.15,68.84"
2024-05-28_13-22-59.744617,"64.66,68.03"
2024-05-28_13-22-59.777390,"51.03,70.15"
2024-05-28_13-22-59.810139,"69.56,87.19"
2024-05-28_13-22-59.838851,"67.71,61.67"
2024-05-28_13-22-59.871606,"83.86,72.39"
2024-05-28_13-22-59.904449,"100.97,66.37"
2024-05-28_13-22-59.937208,"63.54,54.24"
2024-05-28_13-22-59.969936,"62.97,74.25"
2024-05-28_13-23-00.002786,"54.41,65.12"
2024-05-28_13-23-00.035759,"66.31,68.69"
2024-05-28_13-23-00.066066,"57.81,68.15"
2024-05-28_13-23-00.097108,"53.62,78.67"
2024-05-28_13-23-00.129688,"76.86,76.39"
2024-05-28_13-23-00.162585,"68.29,63.45"
2024-05-28_13-23-00.195239,"89.59,71.86"
2024-05-28_13-23-00.227880,"99.67,72.54"
2024-05-28_13-23-00.261189,"63.13,56.68"
2024-05-28_13-23-00.293442,"49.58,71.82"
2024-05-28_13-23-00.322118,"58.53,65.16"
2024-05-28_13-23-00.354863,"58.10,68.71"
2024-05-28_13-23-00.387642,"82.14,73.76"
2024-05-28_13-23-00.420485,"68.63,83.30"
2024-05-28_13-23-00.453191,"72.90,79.00"
2024-05-28_13-23-00.485883,"79.26,69.87"
2024-05-28_13-23-00.518709,"98.71,74.19"
2024-05-28_13-23-00.547334,"75.22,40.74"
2024-05-28_13-23-00.580179,"43.23,64.21"
2024-05-28_13-23-00.612902,"52.77,69.04"
2024-05-28_13-23-00.645658,"67.11,65.26"
2024-05-28_13-23-00.678440,"53.51,78.02"
2024-05-28_13-23-00.711170,"51.60,71.99"
2024-05-28_13-23-00.743886,"78.59,85.72"
2024-05-28_13-23-00.772641,"65.68,69.61"
2024-05-28_13-23-00.805376,"87.00,65.82"
2024-05-28_13-23-00.838161,"96.15,58.97"
2024-05-28_13-23-00.870924,"75.64,59.69"
2024-05-28_13-23-00.903679,"51.12,65.57"
2024-05-28_13-23-00.936431,"65.00,67.65"
2024-05-28_13-23-00.969144,"61.47,75.25"
2024-05-28_13-23-00.997893,"52.52,71.04"
2024-05-28_13-23-01.030652,"52.33,71.71"
2024-05-28_13-23-01.063396,"90.47,69.52"
2024-05-28_13-23-01.096295,"82.34,77.02"
2024-05-28_13-23-01.129113,"87.12,74.70"
2024-05-28_13-23-01.161716,"79.82,42.76"
2024-05-28_13-23-01.194771,"66.93,58.92"
