timestamp,EMG
2024-05-28_12-57-45.876746,"58,85.55"
2024-05-28_12-57-45.877036,".04,71.07"
2024-05-28_12-57-45.877120,"85.90,68.20"
2024-05-28_12-57-45.877321,"83.35,55.58"
2024-05-28_12-57-45.877414,"93.20,46.34"
2024-05-28_12-57-45.877475,"84.79,61.15"
2024-05-28_12-57-45.877527,"56.16,60.56"
2024-05-28_12-57-45.877580,"63.53,60.69"
2024-05-28_12-57-45.877633,"90.73,85.83"
2024-05-28_12-57-45.877685,"96.28,86.34"
2024-05-28_12-57-45.877735,"81.58,85.55"
2024-05-28_12-57-47.443382,"93.02,41.45"
2024-05-28_12-57-47.475766,"91.16,56.64"
2024-05-28_12-57-47.508462,"55.53,58.52"
2024-05-28_12-57-47.537254,"62.55,55.77"
2024-05-28_12-57-47.570031,"84.62,86.60"
2024-05-28_12-57-47.602842,"90.19,84.53"
2024-05-28_12-57-47.635491,"79.96,86.32"
2024-05-28_12-57-47.668300,"84.91,77.10"
2024-05-28_12-57-47.701046,"98.25,79.49"
2024-05-28_12-57-47.733742,"104.93,71.89"
2024-05-28_12-57-47.762463,"82.43,53.13"
2024-05-28_12-57-47.795262,"107.77,53.19"
2024-05-28_12-57-47.827948,"95.11,51.47"
2024-05-28_12-57-47.860704,"77.19,54.46"
2024-05-28_12-57-47.893503,"61.81,77.48"
2024-05-28_12-57-47.926262,"80.43,78.86"
2024-05-28_12-57-47.959267,"81.57,87.56"
2024-05-28_12-57-47.987800,"82.75,82.92"
2024-05-28_12-57-48.020596,"87.64,88.90"
2024-05-28_12-57-48.053276,"94.98,83.69"
2024-05-28_12-57-48.086089,"83.80,71.41"
2024-05-28_12-57-48.118828,"106.31,52.06"
2024-05-28_12-57-48.151574,"95.54,56.54"
2024-05-28_12-57-48.184271,"108.78,46.71"
2024-05-28_12-57-48.213209,"98.68,57.64"
2024-05-28_12-57-48.245852,"61.64,56.81"
2024-05-28_12-57-48.278583,"69.11,59.43"
2024-05-28_12-57-48.311620,"81.22,89.06"
2024-05-28_12-57-48.344166,"83.70,80.39"
2024-05-28_12-57-48.376808,"86.50,94.45"
2024-05-28_12-57-48.409546,"82.24,75.01"
2024-05-28_12-57-48.438246,"79.45,78.83"
2024-05-28_12-57-48.471107,"104.40,71.78"
2024-05-28_12-57-48.503855,"92.95,53.50"
2024-05-28_12-57-48.536762,"97.10,54.06"
2024-05-28_12-57-48.569435,"69.56,52.27"
2024-05-28_12-57-48.602380,"75.45,55.85"
2024-05-28_12-57-48.634919,"72.95,56.65"
2024-05-28_12-57-48.667583,"78.29,77.23"
2024-05-28_12-57-48.708848,"75.25,92.97"
2024-05-28_12-57-48.739292,"73.50,84.20"
2024-05-28_12-57-48.775777,"89.53,98.78"
2024-05-28_12-57-48.796457,"99.96,92.36"
2024-05-28_12-57-48.827944,"91.32,57.24"
2024-05-28_12-57-48.860216,"95.44,53.69"
2024-05-28_12-57-48.908726,"97.50,57.23"
2024-05-28_12-57-48.923157,"97.03,46.47"
2024-05-28_12-57-48.955279,"95.80,57.88"
2024-05-28_12-57-48.987446,"60.88,76.26"
2024-05-28_12-57-49.019896,"65.48,57.59"
2024-05-28_12-57-49.052639,"79.03,88.99"
2024-05-28_12-57-49.085389,"84.69,79.55"
2024-05-28_12-57-49.118063,"97.82,96.53"
2024-05-28_12-57-49.146796,"75.60,74.60"
2024-05-28_12-57-49.179583,"73.97,77.81"
2024-05-28_12-57-49.212324,"95.20,71.17"
2024-05-28_12-57-49.245147,"94.45,70.05"
2024-05-28_12-57-49.277925,"106.41,53.28"
2024-05-28_12-57-49.310608,"100.33,51.96"
2024-05-28_12-57-49.343566,"68.87,55.75"
2024-05-28_12-57-49.372152,"60.12,57.42"
2024-05-28_12-57-49.404891,"74.72,84.94"
2024-05-28_12-57-49.437725,"84.57,85.95"
2024-05-28_12-57-49.470404,"93.50,82.04"
2024-05-28_12-57-49.503220,"86.77,90.57"
2024-05-28_12-57-49.536508,"101.84,83.44"
2024-05-28_12-57-49.571095,"87.25,70.35"
2024-05-28_12-57-49.597434,"103.72,52.57"
2024-05-28_12-57-49.630093,"96.36,56.79"
2024-05-28_12-57-49.662873,"105.33,46.27"
2024-05-28_12-57-49.695672,"92.90,57.47"
2024-05-28_12-57-49.728417,"55.92,58.34"
2024-05-28_12-57-49.761139,"63.93,58.50"
2024-05-28_12-57-49.793860,"83.41,86.67"
2024-05-28_12-57-49.822627,"90.53,76.62"
2024-05-28_12-57-49.855406,"98.92,88.73"
2024-05-28_12-57-49.888148,"83.83,77.46"
2024-05-28_12-57-49.920949,"96.00,79.99"
2024-05-28_12-57-49.953755,"103.88,71.56"
2024-05-28_12-57-49.986372,"94.86,53.26"
2024-05-28_12-57-50.019160,"106.43,53.08"
2024-05-28_12-57-50.047912,"99.89,51.76"
2024-05-28_12-57-50.080635,"69.86,54.68"
2024-05-28_12-57-50.113473,"59.90,74.70"
2024-05-28_12-57-50.146208,"76.97,87.54"
2024-05-28_12-57-50.178987,"85.54,84.83"
2024-05-28_12-57-50.211691,"83.79,85.56"
2024-05-28_12-57-50.244383,"96.45,81.78"
2024-05-28_12-57-50.273150,"92.39,84.60"
2024-05-28_12-57-50.305971,"87.13,70.32"
2024-05-28_12-57-50.338798,"97.62,68.95"
2024-05-28_12-57-50.371489,"98.44,56.84"
2024-05-28_12-57-50.404361,"103.69,46.52"
2024-05-28_12-57-50.436952,"79.68,59.47"
2024-05-28_12-57-50.469779,"55.55,59.27"
2024-05-28_12-57-50.499253,"73.49,95.17"
2024-05-28_12-57-50.531297,"76.64,69.22"
2024-05-28_12-57-50.563952,"85.61,85.62"
2024-05-28_12-57-50.596721,"92.29,80.87"
2024-05-28_12-57-50.629592,"95.15,82.37"
2024-05-28_12-57-50.662222,"88.82,79.43"
2024-05-28_12-57-50.695218,"84.15,71.88"
2024-05-28_12-57-50.723764,"84.07,53.18"
2024-05-28_12-57-50.756456,"105.14,53.17"
2024-05-28_12-57-50.789220,"91.43,52.43"
2024-05-28_12-57-50.821988,"68.73,55.95"
2024-05-28_12-57-50.854749,"70.87,89.35"
2024-05-28_12-57-50.887530,"81.43,79.78"
2024-05-28_12-57-50.920208,"88.01,83.41"
2024-05-28_12-57-50.948943,"83.45,80.27"
2024-05-28_12-57-50.981774,"104.84,86.74"
2024-05-28_12-57-51.014529,"98.89,72.73"
2024-05-28_12-57-51.047257,"76.32,53.61"
2024-05-28_12-57-51.080028,"87.13,69.05"
2024-05-28_12-57-51.112794,"95.16,56.12"
2024-05-28_12-57-51.145481,"92.05,46.59"
2024-05-28_12-57-51.174301,"72.72,60.76"
2024-05-28_12-57-51.207001,"71.09,59.75"
2024-05-28_12-57-51.239747,"75.05,80.13"
2024-05-28_12-57-51.272511,"89.46,84.82"
2024-05-28_12-57-51.305315,"83.32,83.88"
2024-05-28_12-57-51.338172,"100.26,89.53"
2024-05-28_12-57-51.370773,"93.73,69.92"
2024-05-28_12-57-51.399540,"89.11,81.04"
2024-05-28_12-57-51.432272,"84.99,56.02"
2024-05-28_12-57-51.465094,"94.54,53.80"
2024-05-28_12-57-51.497787,"100.71,53.28"
2024-05-28_12-57-51.530604,"71.26,53.72"
2024-05-28_12-57-51.563332,"65.09,56.77"
2024-05-28_12-57-51.596057,"70.64,83.32"
2024-05-28_12-57-51.625081,"83.44,80.56"
2024-05-28_12-57-51.657597,"84.93,92.57"
2024-05-28_12-57-51.690310,"82.47,80.57"
2024-05-28_12-57-51.723118,"86.29,78.13"
2024-05-28_12-57-51.755824,"102.06,84.03"
2024-05-28_12-57-51.788597,"75.75,54.07"
2024-05-28_12-57-51.821294,"98.76,52.74"
2024-05-28_12-57-51.854017,"92.37,56.11"
2024-05-28_12-57-51.882793,"78.23,47.30"
2024-05-28_12-57-51.915608,"63.27,85.20"
2024-05-28_12-57-51.948325,"74.80,82.26"
2024-05-28_12-57-51.981089,"87.96,86.46"
2024-05-28_12-57-52.013861,"103.35,82.03"
2024-05-28_12-57-52.046566,"84.72,81.91"
2024-05-28_12-57-52.079423,"90.51,78.17"
2024-05-28_12-57-52.108130,"84.74,68.38"
2024-05-28_12-57-52.140905,"100.48,52.46"
2024-05-28_12-57-52.173617,"104.95,56.38"
2024-05-28_12-57-52.207345,"98.14,53.85"
2024-05-28_12-57-52.239191,"75.80,55.52"
2024-05-28_12-57-52.271846,"62.07,56.17"
2024-05-28_12-57-52.304552,"74.33,74.02"
2024-05-28_12-57-52.333618,"87.89,90.19"
2024-05-28_12-57-52.366381,"73.61,90.79"
2024-05-28_12-57-52.400508,"68.93,92.52"
2024-05-28_12-57-52.431857,"83.06,84.93"
2024-05-28_12-57-52.464961,"81.20,54.45"
2024-05-28_12-57-52.499196,"100.93,57.91"
2024-05-28_12-57-52.529995,"79.90,55.21"
2024-05-28_12-57-52.558649,"84.85,56.47"
2024-05-28_12-57-52.591335,"69.38,58.11"
2024-05-28_12-57-52.624111,"76.19,80.63"
2024-05-28_12-57-52.656952,"73.23,94.97"
2024-05-28_12-57-52.689663,"80.18,89.91"
2024-05-28_12-57-52.722413,"88.30,81.33"
2024-05-28_12-57-52.755197,"94.59,77.48"
2024-05-28_12-57-52.783860,"91.13,80.90"
2024-05-28_12-57-52.816614,"79.92,77.99"
2024-05-28_12-57-52.849410,"81.68,77.30"
2024-05-28_12-57-52.882154,"74.34,79.13"
2024-05-28_12-57-52.915007,"73.13,79.22"
2024-05-28_12-57-52.947771,"104.87,75.53"
2024-05-28_12-57-52.980472,"87.86,94.51"
2024-05-28_12-57-53.009257,"68.55,84.52"
2024-05-28_12-57-53.041976,"83.81,88.68"
2024-05-28_12-57-53.074651,"67.73,73.96"
2024-05-28_12-57-53.107418,"79.83,66.04"
2024-05-28_12-57-53.140218,"104.76,69.49"
2024-05-28_12-57-53.172926,"103.15,63.26"
2024-05-28_12-57-53.205657,"92.67,57.25"
2024-05-28_12-57-53.234354,"85.13,65.78"
2024-05-28_12-57-53.267143,"86.29,74.27"
2024-05-28_12-57-53.300192,"92.97,75.01"
2024-05-28_12-57-53.332743,"100.54,59.37"
2024-05-28_12-57-53.365572,"97.83,66.78"
2024-05-28_12-57-53.398231,"71.83,69.66"
2024-05-28_12-57-53.430951,"68.20,59.71"
2024-05-28_12-57-53.459658,"78.49,62.86"
2024-05-28_12-57-53.492519,"105.56,77.51"
2024-05-28_12-57-53.525176,"95.56,59.65"
2024-05-28_12-57-53.557945,"80.46,68.48"
2024-05-28_12-57-53.590739,"84.32,68.61"
2024-05-28_12-57-53.623601,"88.20,51.13"
2024-05-28_12-57-53.656233,"74.46,58.94"
2024-05-28_12-57-53.684929,"70.68,62.81"
2024-05-28_12-57-53.717709,"77.46,88.61"
2024-05-28_12-57-53.750509,"90.57,82.45"
2024-05-28_12-57-53.783225,"96.11,84.92"
2024-05-28_12-57-53.816020,"94.02,73.31"
2024-05-28_12-57-53.848789,"84.16,54.12"
2024-05-28_12-57-53.881487,"104.16,53.55"
2024-05-28_12-57-53.910182,"96.08,56.77"
2024-05-28_12-57-53.943030,"104.37,46.59"
2024-05-28_12-57-53.975818,"94.43,57.39"
2024-05-28_12-57-54.008524,"55.33,57.62"
2024-05-28_12-57-54.041300,"63.12,76.71"
2024-05-28_12-57-54.074084,"81.67,87.14"
2024-05-28_12-57-54.106795,"87.40,87.62"
2024-05-28_12-57-54.135480,"87.43,85.65"
2024-05-28_12-57-54.168259,"86.04,74.46"
2024-05-28_12-57-54.201001,"97.48,79.77"
2024-05-28_12-57-54.233812,"95.76,56.18"
2024-05-28_12-57-54.266551,"95.56,53.45"
2024-05-28_12-57-54.299322,"105.62,53.01"
2024-05-28_12-57-54.332038,"93.75,51.98"
2024-05-28_12-57-54.360792,"68.36,54.65"
2024-05-28_12-57-54.393566,"59.09,56.72"
2024-05-28_12-57-54.426356,"77.56,84.30"
2024-05-28_12-57-54.459080,"80.22,86.86"
2024-05-28_12-57-54.491841,"83.79,84.80"
2024-05-28_12-57-54.524590,"94.70,79.82"
2024-05-28_12-57-54.557280,"99.38,85.32"
2024-05-28_12-57-54.590037,"76.01,70.78"
2024-05-28_12-57-54.618783,"86.52,51.96"
2024-05-28_12-57-54.651704,"96.97,56.87"
2024-05-28_12-57-54.684377,"96.39,46.66"
2024-05-28_12-57-54.717066,"74.74,60.26"
2024-05-28_12-57-54.749899,"54.72,59.59"
2024-05-28_12-57-54.782542,"71.55,75.67"
2024-05-28_12-57-54.811305,"89.01,83.68"
2024-05-28_12-57-54.844092,"94.31,81.16"
2024-05-28_12-57-54.876815,"99.58,80.16"
2024-05-28_12-57-54.909707,"96.31,69.52"
2024-05-28_12-57-54.942355,"89.52,67.64"
2024-05-28_12-57-54.975418,"97.09,56.60"
2024-05-28_12-57-55.007822,"98.80,53.88"
2024-05-28_12-57-55.040618,"88.34,54.64"
2024-05-28_12-57-55.069338,"67.63,54.70"
2024-05-28_12-57-55.102145,"82.89,60.50"
2024-05-28_12-57-55.134847,"71.33,83.23"
2024-05-28_12-57-55.167622,"81.93,81.32"
2024-05-28_12-57-55.200397,"84.98,82.72"
2024-05-28_12-57-55.233076,"84.52,81.83"
2024-05-28_12-57-55.265786,"102.02,91.43"
2024-05-28_12-57-55.294602,"104.62,69.67"
2024-05-28_12-57-55.327377,"87.92,54.73"
2024-05-28_12-57-55.360186,"105.11,54.32"
2024-05-28_12-57-55.393085,"91.80,58.71"
2024-05-28_12-57-55.425697,"77.36,48.52"
2024-05-28_12-57-55.458363,"82.52,58.88"
2024-05-28_12-57-55.491219,"72.21,81.30"
2024-05-28_12-57-55.519963,"68.87,92.81"
2024-05-28_12-57-55.552639,"82.07,97.44"
2024-05-28_12-57-55.585361,"84.70,86.59"
2024-05-28_12-57-55.618148,"100.94,84.40"
2024-05-28_12-57-55.650933,"93.84,68.26"
2024-05-28_12-57-55.683681,"97.85,53.40"
2024-05-28_12-57-55.716350,"111.14,57.34"
2024-05-28_12-57-55.745106,"77.05,55.84"
2024-05-28_12-57-55.777887,"71.24,54.76"
2024-05-28_12-57-55.810639,"84.30,56.97"
2024-05-28_12-57-55.843389,"69.88,79.07"
2024-05-28_12-57-55.876164,"79.23,93.10"
2024-05-28_12-57-55.908910,"80.57,83.73"
2024-05-28_12-57-55.941637,"91.85,80.14"
2024-05-28_12-57-55.970661,"91.47,79.22"
2024-05-28_12-57-56.003167,"96.57,65.05"
2024-05-28_12-57-56.035978,"111.08,57.92"
2024-05-28_12-57-56.068702,"91.75,55.10"
2024-05-28_12-57-56.101438,"77.93,54.64"
2024-05-28_12-57-56.134194,"75.08,59.24"
2024-05-28_12-57-56.166899,"80.23,54.66"
2024-05-28_12-57-56.195646,"71.71,95.58"
2024-05-28_12-57-56.228417,"84.03,79.83"
2024-05-28_12-57-56.261174,"85.66,84.16"
2024-05-28_12-57-56.294007,"99.94,84.47"
2024-05-28_12-57-56.326800,"98.60,70.45"
2024-05-28_12-57-56.359547,"96.76,54.46"
2024-05-28_12-57-56.392179,"103.69,51.84"
2024-05-28_12-57-56.420890,"82.42,54.35"
2024-05-28_12-57-56.453684,"67.00,58.86"
2024-05-28_12-57-56.486507,"86.07,57.98"
2024-05-28_12-57-56.519201,"68.22,85.84"
2024-05-28_12-57-56.552063,"89.76,83.79"
2024-05-28_12-57-56.584756,"78.58,94.02"
2024-05-28_12-57-56.617514,"105.89,83.97"
2024-05-28_12-57-56.646227,"91.36,69.43"
2024-05-28_12-57-56.678973,"107.33,53.29"
2024-05-28_12-57-56.711697,"97.46,57.97"
2024-05-28_12-57-56.744480,"98.80,47.46"
2024-05-28_12-57-56.777241,"78.50,58.82"
2024-05-28_12-57-56.810073,"71.42,58.21"
2024-05-28_12-57-56.842719,"73.01,58.17"
2024-05-28_12-57-56.871424,"79.59,86.19"
2024-05-28_12-57-56.904219,"79.67,77.60"
2024-05-28_12-57-56.937015,"95.16,92.42"
2024-05-28_12-57-56.969733,"88.14,79.87"
2024-05-28_12-57-57.002704,"99.16,81.02"
2024-05-28_12-57-57.035316,"106.24,57.11"
2024-05-28_12-57-57.068054,"94.22,53.70"
2024-05-28_12-57-57.097169,"96.01,54.38"
2024-05-28_12-57-57.129607,"75.50,54.02"
2024-05-28_12-57-57.162263,"89.76,54.51"
2024-05-28_12-57-57.195196,"72.03,82.64"
2024-05-28_12-57-57.229092,"76.36,83.44"
2024-05-28_12-57-57.260561,"63.75,96.84"
2024-05-28_12-57-57.293233,"81.62,76.22"
2024-05-28_12-57-57.322013,"96.88,83.01"
2024-05-28_12-57-57.354835,"104.89,73.66"
2024-05-28_12-57-57.387550,"87.83,54.84"
2024-05-28_12-57-57.420314,"110.97,54.30"
2024-05-28_12-57-57.453076,"78.32,57.57"
2024-05-28_12-57-57.485795,"66.90,49.38"
2024-05-28_12-57-57.518494,"73.26,64.60"
2024-05-28_12-57-57.547313,"68.54,81.84"
2024-05-28_12-57-57.580120,"84.78,85.81"
2024-05-28_12-57-57.612800,"74.63,89.27"
2024-05-28_12-57-57.645602,"83.30,83.16"
2024-05-28_12-57-57.678397,"101.48,82.99"
2024-05-28_12-57-57.711156,"97.24,51.95"
2024-05-28_12-57-57.743773,"98.77,54.12"
2024-05-28_12-57-57.772578,"107.71,56.94"
2024-05-28_12-57-57.805352,"64.48,56.89"
2024-05-28_12-57-57.838078,"68.82,54.13"
2024-05-28_12-57-57.870825,"75.14,79.94"
2024-05-28_12-57-57.903577,"83.94,89.27"
2024-05-28_12-57-57.936366,"83.56,88.77"
2024-05-28_12-57-57.969064,"85.43,76.58"
2024-05-28_12-57-57.997810,"98.08,78.93"
2024-05-28_12-57-58.030615,"96.93,57.69"
2024-05-28_12-57-58.063510,"80.67,47.83"
2024-05-28_12-57-58.096132,"82.97,59.22"
2024-05-28_12-57-58.135143,"65.41,56.47"
2024-05-28_12-57-58.175255,"75.44,55.13"
2024-05-28_12-57-58.194626,"79.63,70.00"
2024-05-28_12-57-58.223216,"74.41,73.90"
2024-05-28_12-57-58.255870,"79.82,94.77"
2024-05-28_12-57-58.288639,"86.98,82.32"
2024-05-28_12-57-58.321504,"87.35,87.13"
2024-05-28_12-57-58.354165,"108.92,58.07"
2024-05-28_12-57-58.386924,"93.35,54.39"
2024-05-28_12-57-58.419891,"93.04,55.09"
2024-05-28_12-57-58.452316,"83.62,53.34"
2024-05-28_12-57-58.481129,"67.04,55.11"
2024-05-28_12-57-58.513904,"71.16,62.74"
2024-05-28_12-57-58.546699,"75.76,84.06"
2024-05-28_12-57-58.579447,"74.29,89.71"
2024-05-28_12-57-58.612233,"78.34,85.16"
2024-05-28_12-57-58.644850,"92.85,82.96"
2024-05-28_12-57-58.677616,"109.82,73.06"
2024-05-28_12-57-58.706385,"88.58,54.49"
2024-05-28_12-57-58.739128,"107.31,53.69"
2024-05-28_12-57-58.771908,"98.51,57.31"
2024-05-28_12-57-58.804654,"68.83,49.30"
2024-05-28_12-57-58.837424,"82.44,59.43"
2024-05-28_12-57-58.870131,"71.38,61.98"
2024-05-28_12-57-58.902846,"76.90,88.07"
2024-05-28_12-57-58.931646,"87.17,90.81"
2024-05-28_12-57-58.964447,"78.79,86.13"
2024-05-28_12-57-58.997202,"99.30,83.96"
2024-05-28_12-57-59.029990,"97.85,52.16"
2024-05-28_12-57-59.062763,"99.08,53.97"
2024-05-28_12-57-59.095476,"100.74,58.01"
2024-05-28_12-57-59.128200,"65.02,56.39"
2024-05-28_12-57-59.156994,"82.38,54.29"
2024-05-28_12-57-59.189714,"71.39,78.92"
2024-05-28_12-57-59.222474,"87.37,89.22"
2024-05-28_12-57-59.255299,"83.69,98.02"
2024-05-28_12-57-59.287998,"87.19,76.89"
2024-05-28_12-57-59.320690,"99.35,80.08"
2024-05-28_12-57-59.353424,"98.47,57.63"
2024-05-28_12-57-59.382172,"98.85,47.34"
2024-05-28_12-57-59.414996,"108.52,56.93"
2024-05-28_12-57-59.447698,"60.93,57.11"
2024-05-28_12-57-59.480482,"71.69,54.14"
2024-05-28_12-57-59.513278,"78.39,89.77"
2024-05-28_12-57-59.545962,"80.59,80.52"
2024-05-28_12-57-59.578677,"84.56,99.87"
2024-05-28_12-57-59.607402,"94.62,77.05"
2024-05-28_12-57-59.640233,"96.42,81.05"
2024-05-28_12-57-59.673002,"105.44,57.59"
2024-05-28_12-57-59.705770,"93.31,54.16"
2024-05-28_12-57-59.738523,"98.37,54.26"
2024-05-28_12-57-59.771391,"66.79,54.89"
2024-05-28_12-57-59.804085,"69.56,52.86"
2024-05-28_12-57-59.832716,"75.37,91.11"
2024-05-28_12-57-59.865502,"80.33,83.18"
2024-05-28_12-57-59.898243,"85.39,88.76"
2024-05-28_12-57-59.931057,"94.23,76.20"
2024-05-28_12-57-59.963821,"95.73,77.39"
2024-05-28_12-57-59.996531,"112.00,57.38"
2024-05-28_12-58-00.029196,"87.63,54.32"
2024-05-28_12-58-00.058045,"95.66,54.26"
2024-05-28_12-58-00.090761,"63.34,58.95"
2024-05-28_12-58-00.123517,"76.91,49.56"
2024-05-28_12-58-00.156280,"62.06,83.76"
2024-05-28_12-58-00.189052,"80.49,81.01"
2024-05-28_12-58-00.221770,"87.88,82.34"
2024-05-28_12-58-00.254490,"97.93,77.51"
2024-05-28_12-58-00.283229,"87.95,79.38"
2024-05-28_12-58-00.316108,"105.97,69.35"
2024-05-28_12-58-00.348827,"98.17,51.66"
2024-05-28_12-58-00.381561,"92.78,53.87"
2024-05-28_12-58-00.414325,"67.04,60.22"
2024-05-28_12-58-00.447091,"74.31,57.60"
2024-05-28_12-58-00.479781,"64.22,92.25"
2024-05-28_12-58-00.508534,"79.17,80.36"
2024-05-28_12-58-00.541291,"87.61,82.22"
2024-05-28_12-58-00.574120,"100.30,87.21"
2024-05-28_12-58-00.606804,"85.85,73.31"
2024-05-28_12-58-00.639579,"107.62,53.06"
2024-05-28_12-58-00.672330,"97.21,57.32"
2024-05-28_12-58-00.705031,"87.74,47.56"
2024-05-28_12-58-00.733743,"71.60,59.73"
2024-05-28_12-58-00.766549,"69.50,58.50"
2024-05-28_12-58-00.799314,"67.49,78.06"
2024-05-28_12-58-00.832199,"78.33,89.23"
2024-05-28_12-58-00.865041,"74.73,89.65"
2024-05-28_12-58-00.897629,"83.34,91.18"
2024-05-28_12-58-00.930304,"105.71,70.09"
2024-05-28_12-58-00.959064,"99.78,52.78"
2024-05-28_12-58-00.991816,"103.91,57.42"
2024-05-28_12-58-01.024579,"81.77,55.01"
2024-05-28_12-58-01.057349,"73.27,54.99"
2024-05-28_12-58-01.090132,"72.38,56.97"
2024-05-28_12-58-01.122817,"77.69,80.05"
2024-05-28_12-58-01.155561,"91.01,92.37"
2024-05-28_12-58-01.188290,"81.16,84.62"
2024-05-28_12-58-01.217114,"86.63,86.49"
2024-05-28_12-58-01.249832,"95.03,58.59"
2024-05-28_12-58-01.282621,"96.30,47.35"
2024-05-28_12-58-01.315438,"112.57,57.27"
2024-05-28_12-58-01.348207,"69.08,56.68"
2024-05-28_12-58-01.380856,"81.18,54.35"
2024-05-28_12-58-01.413621,"80.73,80.83"
2024-05-28_12-58-01.442437,"76.05,84.14"
2024-05-28_12-58-01.475288,"71.56,102.51"
2024-05-28_12-58-01.508007,"88.00,78.66"
2024-05-28_12-58-01.540701,"87.92,71.96"
2024-05-28_12-58-01.573473,"105.95,57.79"
2024-05-28_12-58-01.606161,"94.16,54.30"
2024-05-28_12-58-01.639169,"104.18,55.01"
2024-05-28_12-58-01.667665,"79.56,54.12"
2024-05-28_12-58-01.700424,"70.49,53.18"
2024-05-28_12-58-01.733201,"74.45,99.97"
2024-05-28_12-58-01.765936,"77.03,82.98"
2024-05-28_12-58-01.798679,"78.21,94.56"
2024-05-28_12-58-01.831414,"76.60,80.31"
2024-05-28_12-58-01.864108,"91.69,67.43"
2024-05-28_12-58-01.892914,"100.24,58.21"
2024-05-28_12-58-01.928309,"86.97,55.09"
2024-05-28_12-58-01.959322,"73.47,56.49"
2024-05-28_12-58-01.991372,"79.76,60.51"
2024-05-28_12-58-02.024045,"93.66,47.89"
2024-05-28_12-58-02.056740,"66.38,82.63"
2024-05-28_12-58-02.089459,"80.37,82.13"
2024-05-28_12-58-02.118187,"76.05,90.53"
2024-05-28_12-58-02.150930,"87.08,84.79"
2024-05-28_12-58-02.183709,"96.33,70.73"
2024-05-28_12-58-02.216569,"94.77,54.57"
2024-05-28_12-58-02.249386,"79.47,52.13"
2024-05-28_12-58-02.281936,"72.78,56.28"
2024-05-28_12-58-02.314638,"66.48,59.84"
2024-05-28_12-58-02.343437,"85.77,59.35"
2024-05-28_12-58-02.376271,"70.07,75.59"
2024-05-28_12-58-02.408994,"78.17,82.31"
2024-05-28_12-58-02.441757,"82.71,89.58"
2024-05-28_12-58-02.474527,"101.34,89.61"
2024-05-28_12-58-02.507266,"91.95,56.32"
2024-05-28_12-58-02.539931,"106.79,53.89"
2024-05-28_12-58-02.568738,"103.37,56.67"
2024-05-28_12-58-02.601456,"78.25,48.26"
2024-05-28_12-58-02.634251,"71.03,59.34"
2024-05-28_12-58-02.667075,"77.95,86.86"
2024-05-28_12-58-02.699757,"71.63,89.98"
2024-05-28_12-58-02.732499,"87.32,84.27"
2024-05-28_12-58-02.765194,"85.91,82.02"
2024-05-28_12-58-02.793951,"100.08,80.54"
2024-05-28_12-58-02.826720,"94.49,52.80"
2024-05-28_12-58-02.859483,"100.40,53.55"
2024-05-28_12-58-02.892619,"105.96,57.37"
2024-05-28_12-58-02.926423,"70.88,56.17"
2024-05-28_12-58-02.959058,"75.23,54.04"
2024-05-28_12-58-02.991105,"79.01,66.32"
2024-05-28_12-58-03.023261,"77.42,94.92"
2024-05-28_12-58-03.052824,"68.87,98.58"
2024-05-28_12-58-03.084881,"68.24,85.78"
2024-05-28_12-58-03.117651,"90.78,62.15"
2024-05-28_12-58-03.156237,"86.86,58.30"
2024-05-28_12-58-03.183460,"95.94,48.04"
2024-05-28_12-58-03.215877,"93.98,58.45"
2024-05-28_12-58-03.244557,"69.44,56.94"
2024-05-28_12-58-03.277316,"89.17,108.30"
2024-05-28_12-58-03.310019,"76.19,76.94"
2024-05-28_12-58-03.342782,"73.87,78.83"
2024-05-28_12-58-03.375536,"93.26,94.65"
2024-05-28_12-58-03.408321,"89.90,81.13"
2024-05-28_12-58-03.440998,"92.20,68.68"
2024-05-28_12-58-03.469782,"107.51,57.44"
2024-05-28_12-58-03.502502,"89.22,54.38"
2024-05-28_12-58-03.535285,"88.10,55.01"
2024-05-28_12-58-03.569333,"65.73,55.25"
2024-05-28_12-58-03.601009,"79.05,77.87"
2024-05-28_12-58-03.633652,"71.04,97.81"
2024-05-28_12-58-03.666271,"80.88,91.54"
2024-05-28_12-58-03.695041,"89.02,84.29"
2024-05-28_12-58-03.727782,"97.34,73.90"
2024-05-28_12-58-03.760553,"96.89,64.40"
2024-05-28_12-58-03.793317,"113.27,57.67"
2024-05-28_12-58-03.826050,"83.81,55.06"
2024-05-28_12-58-03.858841,"80.17,55.38"
2024-05-28_12-58-03.891589,"75.81,71.57"
2024-05-28_12-58-03.920343,"79.06,90.94"
2024-05-28_12-58-03.964432,"66.49,94.95"
2024-05-28_12-58-04.011239,"76.29,65.62"
2024-05-28_12-58-04.021583,"76.12,60.63"
2024-05-28_12-58-04.054954,"84.55,60.63"
2024-05-28_12-58-04.084202,"91.05,54.94"
2024-05-28_12-58-04.116979,"102.90,54.66"
2024-05-28_12-58-04.149534,"83.80,53.51"
2024-05-28_12-58-04.178415,"76.04,54.18"
2024-05-28_12-58-04.211145,"77.14,89.86"
2024-05-28_12-58-04.244031,"77.98,82.67"
2024-05-28_12-58-04.276662,"79.42,95.51"
2024-05-28_12-58-04.309439,"74.40,81.75"
2024-05-28_12-58-04.342123,"94.47,79.87"
2024-05-28_12-58-04.374808,"111.36,57.13"
2024-05-28_12-58-04.403657,"90.15,54.24"
2024-05-28_12-58-04.436406,"99.00,53.97"
2024-05-28_12-58-04.469204,"65.42,58.56"
2024-05-28_12-58-04.501910,"77.25,48.31"
2024-05-28_12-58-04.534659,"68.58,80.38"
2024-05-28_12-58-04.567383,"84.60,79.63"
2024-05-28_12-58-04.600080,"86.99,85.40"
2024-05-28_12-58-04.628859,"98.66,70.86"
2024-05-28_12-58-04.661654,"100.68,69.57"
2024-05-28_12-58-04.694451,"107.38,53.99"
2024-05-28_12-58-04.727164,"98.35,51.93"
2024-05-28_12-58-04.759983,"71.33,55.36"
2024-05-28_12-58-04.792705,"76.66,60.64"
2024-05-28_12-58-04.825520,"75.85,67.68"
2024-05-28_12-58-04.854211,"81.36,87.21"
2024-05-28_12-58-04.886950,"79.34,80.95"
2024-05-28_12-58-04.919705,"83.34,87.28"
2024-05-28_12-58-04.952490,"103.66,73.87"
2024-05-28_12-58-04.985263,"87.77,54.92"
2024-05-28_12-58-05.017999,"105.87,54.17"
2024-05-28_12-58-05.050622,"88.58,57.96"
2024-05-28_12-58-05.079444,"66.99,49.10"
2024-05-28_12-58-05.112203,"70.82,61.68"
2024-05-28_12-58-05.144933,"73.93,81.59"
2024-05-28_12-58-05.177660,"85.26,86.16"
2024-05-28_12-58-05.210552,"93.84,82.02"
2024-05-28_12-58-05.243216,"88.00,90.50"
2024-05-28_12-58-05.275996,"104.70,53.30"
2024-05-28_12-58-05.304695,"88.17,51.97"
2024-05-28_12-58-05.338905,"89.57,55.28"
2024-05-28_12-58-05.370247,"68.09,60.23"
2024-05-28_12-58-05.403043,"86.34,58.37"
2024-05-28_12-58-05.435770,"69.99,74.99"
2024-05-28_12-58-05.468510,"92.98,79.66"
2024-05-28_12-58-05.501179,"87.24,90.48"
2024-05-28_12-58-05.530021,"100.98,81.16"
2024-05-28_12-58-05.562830,"88.94,55.41"
2024-05-28_12-58-05.595835,"107.96,53.87"
2024-05-28_12-58-05.628317,"94.94,57.08"
2024-05-28_12-58-05.661095,"71.83,48.28"
2024-05-28_12-58-05.693756,"78.65,62.76"
2024-05-28_12-58-05.726437,"70.00,62.65"
2024-05-28_12-58-05.755214,"85.64,85.44"
2024-05-28_12-58-05.788016,"88.12,81.73"
2024-05-28_12-58-05.820717,"92.15,82.93"
2024-05-28_12-58-05.853529,"101.84,68.34"
2024-05-28_12-58-05.886295,"97.73,51.82"
2024-05-28_12-58-05.919040,"95.46,53.56"
2024-05-28_12-58-05.951744,"83.96,60.01"
2024-05-28_12-58-05.980533,"77.62,57.96"
2024-05-28_12-58-06.013230,"71.04,55.93"
2024-05-28_12-58-06.046004,"76.93,79.60"
2024-05-28_12-58-06.078754,"98.55,84.38"
2024-05-28_12-58-06.111533,"98.04,90.57"
2024-05-28_12-58-06.144345,"91.28,80.73"
2024-05-28_12-58-06.177206,"93.06,53.13"
2024-05-28_12-58-06.206475,"76.25,58.53"
2024-05-28_12-58-06.238663,"91.19,47.83"
2024-05-28_12-58-06.271457,"77.76,58.39"
2024-05-28_12-58-06.304083,"69.47,58.21"
2024-05-28_12-58-06.336851,"65.38,92.68"
2024-05-28_12-58-06.369615,"79.95,87.54"
2024-05-28_12-58-06.402253,"78.44,84.25"
2024-05-28_12-58-06.431019,"92.68,87.67"
2024-05-28_12-58-06.463827,"97.81,69.47"
2024-05-28_12-58-06.496569,"99.86,52.88"
2024-05-28_12-58-06.529291,"106.49,57.28"
2024-05-28_12-58-06.562150,"70.31,56.28"
2024-05-28_12-58-06.594914,"70.84,53.74"
2024-05-28_12-58-06.627926,"74.77,60.34"
2024-05-28_12-58-06.656329,"81.97,91.64"
2024-05-28_12-58-06.689116,"71.41,95.57"
2024-05-28_12-58-06.721930,"78.79,80.26"
2024-05-28_12-58-06.754682,"103.37,82.35"
2024-05-28_12-58-06.787407,"98.03,57.63"
2024-05-28_12-58-06.820142,"96.07,47.79"
2024-05-28_12-58-06.852805,"94.81,58.06"
2024-05-28_12-58-06.885513,"56.44,57.56"
2024-05-28_12-58-06.914315,"76.48,81.13"
2024-05-28_12-58-06.947093,"75.35,89.05"
2024-05-28_12-58-06.979879,"75.31,89.51"
2024-05-28_12-58-07.012724,"89.80,89.02"
2024-05-28_12-58-07.045448,"92.73,78.20"
2024-05-28_12-58-07.078066,"98.21,69.37"
2024-05-28_12-58-07.110795,"108.09,57.06"
2024-05-28_12-58-07.139589,"96.69,54.51"
2024-05-28_12-58-07.172411,"73.35,55.27"
2024-05-28_12-58-07.205154,"73.55,56.41"
2024-05-28_12-58-07.237927,"72.84,79.33"
2024-05-28_12-58-07.272850,"77.05,93.63"
2024-05-28_12-58-07.303977,"75.39,84.21"
2024-05-28_12-58-07.336115,"79.63,77.82"
2024-05-28_12-58-07.364919,"96.35,57.90"
2024-05-28_12-58-07.397633,"97.49,47.27"
2024-05-28_12-58-07.430444,"112.66,56.78"
2024-05-28_12-58-07.463230,"64.87,56.64"
2024-05-28_12-58-07.495934,"69.45,54.31"
2024-05-28_12-58-07.528623,"77.53,91.83"
2024-05-28_12-58-07.561311,"82.80,80.06"
2024-05-28_12-58-07.590189,"85.90,89.44"
2024-05-28_12-58-07.623002,"81.25,79.56"
2024-05-28_12-58-07.655731,"93.30,69.48"
2024-05-28_12-58-07.688404,"96.34,58.34"
2024-05-28_12-58-07.721191,"87.12,54.76"
2024-05-28_12-58-07.754142,"79.90,55.62"
2024-05-28_12-58-07.786640,"77.03,54.94"
2024-05-28_12-58-07.815454,"78.99,73.28"
2024-05-28_12-58-07.848709,"66.61,79.24"
2024-05-28_12-58-07.880967,"71.01,94.61"
2024-05-28_12-58-07.913722,"77.94,87.60"
2024-05-28_12-58-07.947193,"89.66,80.11"
2024-05-28_12-58-07.983130,"94.95,47.79"
2024-05-28_12-58-08.011998,"86.71,58.50"
2024-05-28_12-58-08.040986,"78.87,55.21"
2024-05-28_12-58-08.073530,"75.91,55.87"
2024-05-28_12-58-08.106280,"78.19,55.86"
2024-05-28_12-58-08.139090,"72.52,80.62"
2024-05-28_12-58-08.171722,"73.71,97.06"
2024-05-28_12-58-08.204428,"81.83,81.70"
2024-05-28_12-58-08.237136,"90.20,86.12"
2024-05-28_12-58-08.266002,"108.63,73.25"
2024-05-28_12-58-08.298695,"94.70,54.40"
2024-05-28_12-58-08.331431,"105.50,54.52"
2024-05-28_12-58-08.364282,"71.62,53.99"
2024-05-28_12-58-08.397125,"67.31,53.98"
2024-05-28_12-58-08.429713,"74.69,98.39"
2024-05-28_12-58-08.462718,"81.34,81.32"
2024-05-28_12-58-08.498794,"81.14,92.01"
2024-05-28_12-58-08.524055,"84.62,81.09"
2024-05-28_12-58-08.556825,"86.75,53.47"
2024-05-28_12-58-08.589528,"112.99,57.33"
2024-05-28_12-58-08.622254,"91.64,54.54"
2024-05-28_12-58-08.655014,"83.28,54.66"
2024-05-28_12-58-08.688123,"60.31,59.14"
2024-05-28_12-58-08.716482,"80.50,53.99"
2024-05-28_12-58-08.751481,"73.04,96.17"
2024-05-28_12-58-08.782065,"92.30,80.81"
2024-05-28_12-58-08.814814,"77.78,88.84"
2024-05-28_12-58-08.847739,"99.10,62.32"
2024-05-28_12-58-08.880309,"91.63,54.55"
2024-05-28_12-58-08.913034,"90.37,55.75"
2024-05-28_12-58-08.942458,"79.61,53.10"
2024-05-28_12-58-08.974513,"73.03,54.56"
2024-05-28_12-58-09.007349,"71.51,66.12"
2024-05-28_12-58-09.040065,"76.14,83.66"
2024-05-28_12-58-09.072864,"77.39,87.75"
2024-05-28_12-58-09.105669,"78.37,86.93"
2024-05-28_12-58-09.138227,"91.92,86.61"
2024-05-28_12-58-09.167054,"110.72,57.18"
2024-05-28_12-58-09.199761,"89.26,54.34"
2024-05-28_12-58-09.232585,"99.88,54.13"
2024-05-28_12-58-09.265290,"68.17,57.89"
2024-05-28_12-58-09.298029,"77.81,47.99"
2024-05-28_12-58-09.330808,"62.76,81.92"
2024-05-28_12-58-09.363551,"82.94,81.02"
2024-05-28_12-58-09.392326,"81.70,89.04"
2024-05-28_12-58-09.425050,"95.76,77.12"
2024-05-28_12-58-09.457788,"99.21,70.41"
2024-05-28_12-58-09.490574,"107.59,53.33"
2024-05-28_12-58-09.523359,"103.69,51.73"
2024-05-28_12-58-09.556078,"78.19,54.42"
2024-05-28_12-58-09.588997,"61.97,59.94"
2024-05-28_12-58-09.617648,"78.22,61.86"
2024-05-28_12-58-09.650413,"69.65,91.82"
2024-05-28_12-58-09.683063,"83.75,86.51"
2024-05-28_12-58-09.715979,"95.23,88.39"
2024-05-28_12-58-09.748642,"99.58,82.21"
2024-05-28_12-58-09.781364,"88.65,54.98"
2024-05-28_12-58-09.814123,"95.67,54.53"
2024-05-28_12-58-09.842827,"88.12,57.60"
2024-05-28_12-58-09.875565,"67.12,49.11"
2024-05-28_12-58-09.908309,"72.20,80.30"
2024-05-28_12-58-09.941103,"76.24,80.44"
2024-05-28_12-58-09.973865,"97.13,84.17"
2024-05-28_12-58-10.006680,"95.23,79.22"
2024-05-28_12-58-10.040114,"90.65,79.76"
2024-05-28_12-58-10.072117,"106.47,52.96"
2024-05-28_12-58-10.101163,"74.85,51.93"
2024-05-28_12-58-10.133588,"87.52,55.05"
2024-05-28_12-58-10.166336,"64.27,60.41"
2024-05-28_12-58-10.199130,"86.23,58.79"
2024-05-28_12-58-10.231884,"67.28,75.96"
2024-05-28_12-58-10.264605,"91.22,79.58"
2024-05-28_12-58-10.297322,"86.91,87.96"
2024-05-28_12-58-10.326173,"100.05,85.68"
2024-05-28_12-58-10.358857,"90.67,71.98"
2024-05-28_12-58-10.391648,"109.31,53.62"
2024-05-28_12-58-10.424429,"99.62,57.33"
2024-05-28_12-58-10.457195,"75.48,48.92"
2024-05-28_12-58-10.490276,"68.86,60.04"
2024-05-28_12-58-10.522566,"72.23,61.61"
2024-05-28_12-58-10.551358,"77.19,91.33"
2024-05-28_12-58-10.584239,"92.03,87.62"
2024-05-28_12-58-10.616950,"84.21,90.10"
2024-05-28_12-58-10.649674,"98.89,69.29"
2024-05-28_12-58-10.682532,"99.60,51.95"
2024-05-28_12-58-10.715152,"97.80,53.66"
2024-05-28_12-58-10.747938,"90.09,58.93"
2024-05-28_12-58-10.776656,"63.77,56.61"
2024-05-28_12-58-10.809432,"72.30,55.33"
2024-05-28_12-58-10.842154,"72.97,80.27"
2024-05-28_12-58-10.874929,"97.75,83.79"
2024-05-28_12-58-10.907696,"98.46,89.45"
2024-05-28_12-58-10.940440,"87.66,79.15"
2024-05-28_12-58-10.973138,"106.27,69.25"
2024-05-28_12-58-11.001885,"98.24,57.16"
2024-05-28_12-58-11.034742,"93.45,46.75"
2024-05-28_12-58-11.067458,"74.49,59.80"
2024-05-28_12-58-11.100183,"69.18,57.99"
2024-05-28_12-58-11.133016,"66.62,76.82"
2024-05-28_12-58-11.165690,"88.30,85.44"
2024-05-28_12-58-11.198384,"86.36,83.69"
2024-05-28_12-58-11.227213,"97.99,91.63"
2024-05-28_12-58-11.260021,"94.71,53.40"
2024-05-28_12-58-11.292741,"99.46,53.51"
2024-05-28_12-58-11.325474,"102.98,57.43"
2024-05-28_12-58-11.358237,"64.43,57.37"
2024-05-28_12-58-11.391077,"67.15,54.83"
2024-05-28_12-58-11.423688,"74.22,60.39"
2024-05-28_12-58-11.452463,"82.68,91.43"
2024-05-28_12-58-11.485286,"82.18,94.67"
2024-05-28_12-58-11.518034,"81.33,81.46"
2024-05-28_12-58-11.550792,"109.63,82.00"
2024-05-28_12-58-11.583510,"97.66,57.41"
2024-05-28_12-58-11.616259,"107.99,47.06"
2024-05-28_12-58-11.648963,"98.05,57.95"
2024-05-28_12-58-11.677691,"56.74,58.06"
2024-05-28_12-58-11.710473,"79.80,55.40"
2024-05-28_12-58-11.743260,"75.61,90.38"
2024-05-28_12-58-11.776021,"73.95,90.68"
2024-05-28_12-58-11.808897,"94.13,89.52"
2024-05-28_12-58-11.841538,"99.11,73.07"
2024-05-28_12-58-11.874243,"99.03,68.27"
2024-05-28_12-58-11.902993,"107.76,57.61"
2024-05-28_12-58-11.935732,"89.59,54.71"
2024-05-28_12-58-11.968497,"74.84,55.35"
2024-05-28_12-58-12.001336,"74.43,57.67"
2024-05-28_12-58-12.034034,"71.86,97.44"
2024-05-28_12-58-12.066853,"82.43,92.66"
2024-05-28_12-58-12.099514,"81.36,79.26"
2024-05-28_12-58-12.128205,"89.52,82.48"
2024-05-28_12-58-12.161037,"99.19,73.65"
2024-05-28_12-58-12.193756,"97.99,47.60"
2024-05-28_12-58-12.226535,"115.99,57.39"
2024-05-28_12-58-12.259321,"70.43,56.91"
2024-05-28_12-58-12.292066,"70.24,55.68"
2024-05-28_12-58-12.324779,"80.50,86.41"
2024-05-28_12-58-12.353497,"81.03,81.40"
2024-05-28_12-58-12.386263,"84.69,91.32"
2024-05-28_12-58-12.419092,"82.63,78.52"
2024-05-28_12-58-12.451808,"97.95,82.04"
2024-05-28_12-58-12.484629,"107.41,57.73"
2024-05-28_12-58-12.517358,"90.28,54.48"
2024-05-28_12-58-12.550063,"87.60,55.93"
2024-05-28_12-58-12.582736,"62.19,56.33"
2024-05-28_12-58-12.611535,"77.59,79.06"
2024-05-28_12-58-12.644349,"72.97,96.34"
2024-05-28_12-58-12.677090,"80.21,88.56"
2024-05-28_12-58-12.709832,"86.19,81.76"
2024-05-28_12-58-12.742717,"89.85,77.86"
2024-05-28_12-58-12.775378,"99.01,64.59"
2024-05-28_12-58-12.808045,"112.15,57.44"
2024-05-28_12-58-12.836795,"83.28,54.85"
2024-05-28_12-58-12.869575,"77.29,55.09"
2024-05-28_12-58-12.902413,"76.53,70.35"
2024-05-28_12-58-12.935158,"74.60,75.44"
2024-05-28_12-58-12.968025,"70.37,98.40"
2024-05-28_12-58-13.000686,"95.22,87.58"
2024-05-28_12-58-13.090785,"72.35,89.86"
2024-05-28_12-58-13.091252,"102.22,61.23"
2024-05-28_12-58-13.100716,"77.11,54.72"
2024-05-28_12-58-13.128383,"91.22,56.07"
2024-05-28_12-58-13.161754,"75.65,53.49"
2024-05-28_12-58-13.223183,"74.63,54.66"
2024-05-28_12-58-13.225930,"82.37,75.91"
2024-05-28_12-58-13.258934,"72.16,74.44"
2024-05-28_12-58-13.296758,"80.35,86.10"
2024-05-28_12-58-13.320174,"84.52,78.36"
2024-05-28_12-58-13.353124,"100.36,79.73"
2024-05-28_12-58-13.385746,"98.14,58.27"
2024-05-28_12-58-13.418727,"67.28,54.76"
2024-05-28_12-58-13.455184,"75.64,56.64"
2024-05-28_12-58-13.500185,"78.40,59.65"
2024-05-28_12-58-13.513079,"83.76,47.84"
2024-05-28_12-58-13.546491,"68.93,90.59"
2024-05-28_12-58-13.587171,"84.85,91.34"
2024-05-28_12-58-13.611023,"69.23,90.62"
2024-05-28_12-58-13.643676,"88.61,87.97"
2024-05-28_12-58-13.676561,"84.81,57.32"
2024-05-28_12-58-13.710024,"71.62,57.55"
2024-05-28_12-58-13.742943,"90.96,52.38"
2024-05-28_12-58-13.770782,"81.21,56.58"
2024-05-28_12-58-13.803751,"69.92,58.85"
2024-05-28_12-58-13.844197,"82.50,81.99"
2024-05-28_12-58-13.869083,"64.01,86.73"
2024-05-28_12-58-13.901781,"72.60,85.02"
2024-05-28_12-58-13.934637,"81.30,92.64"
2024-05-28_12-58-13.963385,"91.08,73.71"
2024-05-28_12-58-13.995950,"82.32,56.70"
2024-05-28_12-58-14.028732,"89.29,56.65"
2024-05-28_12-58-14.065956,"91.95,58.92"
2024-05-28_12-58-14.131517,"77.42,48.80"
2024-05-28_12-58-14.131802,"83.14,72.32"
2024-05-28_12-58-14.159842,"73.50,72.02"
2024-05-28_12-58-14.188451,"71.97,80.90"
2024-05-28_12-58-14.221219,"86.03,90.11"
2024-05-28_12-58-14.254431,"88.62,85.81"
2024-05-28_12-58-14.286747,"88.67,59.48"
2024-05-28_12-58-14.319555,"71.96,52.02"
2024-05-28_12-58-14.352237,"93.05,55.88"
2024-05-28_12-58-14.385176,"89.20,58.85"
2024-05-28_12-58-14.413824,"84.79,57.68"
2024-05-28_12-58-14.446622,"73.16,71.71"
2024-05-28_12-58-14.479414,"70.18,72.35"
2024-05-28_12-58-14.512051,"87.59,90.75"
2024-05-28_12-58-14.545068,"89.48,91.44"
2024-05-28_12-58-14.577523,"78.07,61.12"
2024-05-28_12-58-14.610211,"106.39,53.68"
2024-05-28_12-58-14.638994,"98.51,57.39"
2024-05-28_12-58-14.671693,"97.43,47.42"
2024-05-28_12-58-14.704697,"75.16,60.73"
2024-05-28_12-58-14.737297,"71.88,58.31"
2024-05-28_12-58-14.770011,"67.68,77.41"
2024-05-28_12-58-14.802784,"88.30,85.73"
2024-05-28_12-58-14.835478,"83.58,88.26"
2024-05-28_12-58-14.864202,"94.03,87.42"
2024-05-28_12-58-14.896964,"97.90,70.51"
2024-05-28_12-58-14.929729,"100.43,53.12"
2024-05-28_12-58-14.962593,"103.47,57.77"
2024-05-28_12-58-14.995419,"78.71,55.86"
2024-05-28_12-58-15.028314,"76.48,54.45"
2024-05-28_12-58-15.060891,"84.74,83.86"
2024-05-28_12-58-15.089561,"74.77,85.28"
2024-05-28_12-58-15.122319,"89.29,93.36"
2024-05-28_12-58-15.155065,"80.66,78.28"
2024-05-28_12-58-15.187883,"96.47,82.99"
2024-05-28_12-58-15.220599,"96.95,57.76"
2024-05-28_12-58-15.253387,"84.88,48.21"
2024-05-28_12-58-15.286011,"94.04,58.43"
2024-05-28_12-58-15.314788,"61.49,57.70"
2024-05-28_12-58-15.347561,"70.10,54.12"
2024-05-28_12-58-15.380341,"76.80,72.52"
2024-05-28_12-58-15.413095,"79.29,82.77"
2024-05-28_12-58-15.445867,"74.15,100.88"
2024-05-28_12-58-15.478811,"83.82,86.65"
2024-05-28_12-58-15.511564,"86.46,73.68"
2024-05-28_12-58-15.540145,"73.63,62.33"
2024-05-28_12-58-15.572840,"86.33,56.47"
2024-05-28_12-58-15.605571,"87.24,56.98"
2024-05-28_12-58-15.638414,"64.64,58.07"
2024-05-28_12-58-15.671100,"79.03,60.72"
2024-05-28_12-58-15.703916,"70.15,100.16"
2024-05-28_12-58-15.736588,"77.58,88.70"
2024-05-28_12-58-15.765354,"81.99,85.81"
2024-05-28_12-58-15.798102,"90.90,81.32"
2024-05-28_12-58-15.830874,"76.04,53.54"
2024-05-28_12-58-15.863624,"95.11,59.43"
2024-05-28_12-58-15.896603,"96.43,55.66"
2024-05-28_12-58-15.929139,"82.51,56.79"
2024-05-28_12-58-15.961963,"80.58,67.86"
2024-05-28_12-58-15.994763,"75.86,83.05"
2024-05-28_12-58-16.023365,"73.54,99.47"
2024-05-28_12-58-16.056131,"79.72,90.17"
2024-05-28_12-58-16.088923,"74.32,91.05"
2024-05-28_12-58-16.121676,"105.92,60.90"
2024-05-28_12-58-16.160384,"96.58,55.73"
2024-05-28_12-58-16.197665,"79.15,56.10"
2024-05-28_12-58-16.219944,"72.84,54.31"
2024-05-28_12-58-16.249525,"76.09,56.32"
2024-05-28_12-58-16.285709,"75.73,70.75"
2024-05-28_12-58-16.314282,"71.75,73.90"
2024-05-28_12-58-16.346884,"79.38,92.20"
2024-05-28_12-58-16.379694,"76.12,84.53"
2024-05-28_12-58-16.412473,"75.90,78.63"
2024-05-28_12-58-16.445231,"89.01,63.50"
2024-05-28_12-58-16.473984,"84.23,57.69"
2024-05-28_12-58-16.506641,"84.64,57.89"
2024-05-28_12-58-16.539431,"76.39,59.43"
2024-05-28_12-58-16.572191,"84.08,49.19"
2024-05-28_12-58-16.605155,"66.18,79.31"
2024-05-28_12-58-16.637786,"76.63,84.72"
2024-05-28_12-58-16.670386,"69.93,95.84"
2024-05-28_12-58-16.699128,"80.40,92.52"
2024-05-28_12-58-16.731917,"90.39,72.95"
2024-05-28_12-58-16.767192,"90.44,56.47"
2024-05-28_12-58-16.800383,"75.88,51.79"
2024-05-28_12-58-16.830208,"77.41,57.44"
2024-05-28_12-58-16.863147,"82.57,60.34"
2024-05-28_12-58-16.899996,"91.88,58.28"
2024-05-28_12-58-16.924562,"67.14,94.93"
2024-05-28_12-58-16.957176,"85.97,91.98"
2024-05-28_12-58-16.990048,"69.38,97.21"
2024-05-28_12-58-17.023885,"97.85,73.64"
2024-05-28_12-58-17.055506,"85.83,56.84"
2024-05-28_12-58-17.088366,"85.55,55.17"
2024-05-28_12-58-17.120950,"80.63,58.87"
2024-05-28_12-58-17.149841,"79.36,48.61"
2024-05-28_12-58-17.182478,"77.19,61.87"
2024-05-28_12-58-17.215231,"73.35,71.74"
2024-05-28_12-58-17.248024,"67.61,96.08"
2024-05-28_12-58-17.280727,"85.24,91.22"
2024-05-28_12-58-17.313503,"83.88,89.06"
2024-05-28_12-58-17.346170,"98.06,71.33"
2024-05-28_12-58-17.374946,"100.10,52.58"
2024-05-28_12-58-17.407790,"88.40,55.06"
2024-05-28_12-58-17.440556,"92.24,60.20"
2024-05-28_12-58-17.473269,"67.31,56.97"
2024-05-28_12-58-17.506138,"77.64,57.15"
2024-05-28_12-58-17.538866,"69.63,84.00"
2024-05-28_12-58-17.571463,"72.64,93.12"
2024-05-28_12-58-17.600244,"90.15,90.76"
2024-05-28_12-58-17.633057,"83.55,79.09"
2024-05-28_12-58-17.665774,"103.43,52.41"
2024-05-28_12-58-17.698517,"67.53,58.37"
2024-05-28_12-58-17.731339,"82.14,48.58"
2024-05-28_12-58-17.764077,"90.10,59.60"
2024-05-28_12-58-17.796749,"75.59,57.78"
2024-05-28_12-58-17.825484,"67.92,79.70"
2024-05-28_12-58-17.858265,"80.84,87.91"
2024-05-28_12-58-17.891063,"75.90,91.41"
2024-05-28_12-58-17.923772,"93.92,81.10"
2024-05-28_12-58-17.956626,"101.48,69.36"
2024-05-28_12-58-17.989262,"100.19,53.47"
2024-05-28_12-58-18.021997,"105.54,57.06"
2024-05-28_12-58-18.050704,"70.97,56.12"
2024-05-28_12-58-18.083560,"67.80,54.69"
2024-05-28_12-58-18.116225,"73.70,62.29"
2024-05-28_12-58-18.149042,"85.53,88.51"
2024-05-28_12-58-18.181795,"81.81,92.86"
2024-05-28_12-58-18.214560,"81.59,81.02"
2024-05-28_12-58-18.247325,"106.32,80.67"
2024-05-28_12-58-18.279943,"98.53,57.26"
2024-05-28_12-58-18.308748,"104.66,46.98"
2024-05-28_12-58-18.341577,"90.29,57.79"
2024-05-28_12-58-18.374441,"57.45,56.80"
2024-05-28_12-58-18.407227,"76.31,56.01"
2024-05-28_12-58-18.439960,"73.59,89.76"
2024-05-28_12-58-18.472599,"70.21,85.08"
2024-05-28_12-58-18.505341,"91.20,88.04"
2024-05-28_12-58-18.534039,"97.86,81.17"
2024-05-28_12-58-18.571406,"96.82,53.32"
2024-05-28_12-58-18.599628,"74.09,58.38"
2024-05-28_12-58-18.632545,"80.14,55.11"
2024-05-28_12-58-18.665250,"77.67,54.92"
2024-05-28_12-58-18.697815,"77.76,55.85"
2024-05-28_12-58-18.730546,"71.26,81.67"
2024-05-28_12-58-18.759331,"78.03,92.89"
2024-05-28_12-58-18.792105,"83.25,87.76"
2024-05-28_12-58-18.825833,"84.36,83.54"
2024-05-28_12-58-18.857653,"93.36,60.93"
2024-05-28_12-58-18.890379,"97.48,47.62"
2024-05-28_12-58-18.923108,"115.02,57.25"
2024-05-28_12-58-18.955763,"72.18,56.25"
2024-05-28_12-58-18.984557,"70.78,55.13"
2024-05-28_12-58-19.017351,"80.35,68.64"
2024-05-28_12-58-19.050155,"74.71,81.37"
2024-05-28_12-58-19.082874,"88.03,101.37"
2024-05-28_12-58-19.115689,"88.03,74.72"
2024-05-28_12-58-19.148338,"92.78,77.17"
2024-05-28_12-58-19.181053,"104.66,57.51"
2024-05-28_12-58-19.209849,"95.85,53.47"
2024-05-28_12-58-19.242707,"99.47,54.00"
2024-05-28_12-58-19.275348,"68.98,54.17"
2024-05-28_12-58-19.308168,"68.80,53.08"
2024-05-28_12-58-19.341084,"76.34,82.79"
2024-05-28_12-58-19.373636,"90.94,91.80"
2024-05-28_12-58-19.406300,"83.84,83.20"
2024-05-28_12-58-19.435187,"89.82,80.57"
2024-05-28_12-58-19.467898,"86.95,66.23"
2024-05-28_12-58-19.500635,"107.07,58.76"
2024-05-28_12-58-19.533406,"89.73,54.66"
2024-05-28_12-58-19.566148,"81.15,54.72"
2024-05-28_12-58-19.598922,"65.85,63.80"
2024-05-28_12-58-19.631598,"79.89,67.16"
2024-05-28_12-58-19.660422,"74.24,94.23"
2024-05-28_12-58-19.693398,"83.63,84.48"
2024-05-28_12-58-19.725997,"77.47,87.25"
2024-05-28_12-58-19.758788,"105.30,59.52"
2024-05-28_12-58-19.791463,"93.77,53.94"
2024-05-28_12-58-19.824200,"105.02,53.93"
2024-05-28_12-58-19.856946,"87.66,52.22"
2024-05-28_12-58-19.885703,"68.14,54.63"
2024-05-28_12-58-19.918390,"71.17,56.13"
2024-05-28_12-58-19.951163,"71.51,85.98"
2024-05-28_12-58-19.991100,"84.57,84.85"
2024-05-28_12-58-20.016735,"83.05,83.46"
2024-05-28_12-58-20.049424,"97.36,82.48"
2024-05-28_12-58-20.082169,"106.44,73.16"
2024-05-28_12-58-20.110945,"88.20,54.39"
2024-05-28_12-58-20.143758,"104.93,53.91"
2024-05-28_12-58-20.176449,"69.46,58.36"
2024-05-28_12-58-20.209177,"78.36,49.17"
2024-05-28_12-58-20.241981,"62.88,101.80"
2024-05-28_12-58-20.274802,"81.59,80.19"
2024-05-28_12-58-20.307561,"85.71,90.92"
2024-05-28_12-58-20.336278,"88.86,74.85"
2024-05-28_12-58-20.369007,"99.87,69.88"
2024-05-28_12-58-20.401717,"107.35,53.50"
2024-05-28_12-58-20.434545,"103.73,51.70"
2024-05-28_12-58-20.467241,"81.12,53.78"
2024-05-28_12-58-20.500040,"66.24,59.14"
2024-05-28_12-58-20.532781,"81.94,64.56"
2024-05-28_12-58-20.561475,"66.17,93.47"
2024-05-28_12-58-20.596172,"81.59,88.28"
2024-05-28_12-58-20.627052,"85.96,91.70"
2024-05-28_12-58-20.662678,"97.14,70.94"
2024-05-28_12-58-20.694944,"85.74,54.88"
2024-05-28_12-58-20.728878,"86.18,55.35"
2024-05-28_12-58-20.758916,"103.10,57.51"
2024-05-28_12-58-20.786680,"69.68,48.18"
2024-05-28_12-58-20.819522,"80.84,60.04"
2024-05-28_12-58-20.854151,"70.92,62.42"
2024-05-28_12-58-20.885069,"76.83,88.52"
2024-05-28_12-58-20.917816,"95.38,82.31"
2024-05-28_12-58-20.950588,"86.29,86.76"
2024-05-28_12-58-20.983295,"107.35,81.67"
2024-05-28_12-58-21.012053,"99.26,51.82"
2024-05-28_12-58-21.044747,"96.59,53.50"
2024-05-28_12-58-21.077538,"92.36,57.89"
2024-05-28_12-58-21.110268,"61.88,57.43"
2024-05-28_12-58-21.143038,"73.20,57.79"
2024-05-28_12-58-21.175817,"70.24,80.38"
2024-05-28_12-58-21.208515,"82.04,85.41"
2024-05-28_12-58-21.241242,"93.43,90.25"
2024-05-28_12-58-21.270059,"92.31,72.77"
2024-05-28_12-58-21.302805,"106.67,52.54"
2024-05-28_12-58-21.335540,"98.26,57.29"
2024-05-28_12-58-21.368356,"102.64,46.61"
2024-05-28_12-58-21.401084,"76.57,58.67"
2024-05-28_12-58-21.433777,"70.58,58.23"
2024-05-28_12-58-21.466486,"66.67,95.33"
2024-05-28_12-58-21.495326,"83.90,86.31"
2024-05-28_12-58-21.528078,"80.38,91.20"
2024-05-28_12-58-21.560816,"92.19,86.20"
2024-05-28_12-58-21.593579,"99.21,70.33"
2024-05-28_12-58-21.626461,"99.02,53.50"
2024-05-28_12-58-21.659025,"88.66,58.60"
2024-05-28_12-58-21.691780,"77.75,55.60"
2024-05-28_12-58-21.720528,"70.24,55.04"
2024-05-28_12-58-21.753368,"80.67,85.52"
2024-05-28_12-58-21.788807,"76.30,94.12"
2024-05-28_12-58-21.818890,"70.76,98.64"
2024-05-28_12-58-21.851632,"70.57,82.38"
2024-05-28_12-58-21.889116,"96.26,71.37"
2024-05-28_12-58-21.917340,"86.05,58.06"
2024-05-28_12-58-21.947870,"92.45,48.35"
2024-05-28_12-58-21.979251,"89.14,58.92"
2024-05-28_12-58-22.011365,"57.63,57.46"
2024-05-28_12-58-22.044191,"82.22,79.46"
2024-05-28_12-58-22.076951,"73.05,91.68"
2024-05-28_12-58-22.109738,"74.68,79.40"
2024-05-28_12-58-22.142419,"88.01,91.98"
2024-05-28_12-58-22.171247,"84.13,78.51"
2024-05-28_12-58-22.203889,"90.90,54.77"
2024-05-28_12-58-22.236648,"107.25,57.44"
2024-05-28_12-58-22.269371,"95.80,54.30"
2024-05-28_12-58-22.302135,"79.43,55.15"
2024-05-28_12-58-22.334923,"60.74,55.86"
2024-05-28_12-58-22.367560,"75.92,54.92"
2024-05-28_12-58-22.396394,"77.23,92.91"
2024-05-28_12-58-22.429185,"94.60,82.00"
2024-05-28_12-58-22.461988,"90.74,81.31"
2024-05-28_12-58-22.494851,"92.63,71.62"
2024-05-28_12-58-22.527532,"98.78,47.23"
2024-05-28_12-58-22.563158,"84.98,58.65"
2024-05-28_12-58-22.593088,"79.65,55.77"
2024-05-28_12-58-22.621679,"83.39,55.00"
2024-05-28_12-58-22.654384,"71.77,55.99"
2024-05-28_12-58-22.687187,"77.18,75.79"
2024-05-28_12-58-22.720458,"95.87,90.57"
2024-05-28_12-58-22.752735,"86.07,78.35"
2024-05-28_12-58-22.785406,"91.79,79.96"
2024-05-28_12-58-22.818134,"113.15,72.99"
2024-05-28_12-58-22.847046,"95.82,53.68"
2024-05-28_12-58-22.879688,"101.46,53.63"
2024-05-28_12-58-22.912424,"67.90,54.54"
2024-05-28_12-58-22.945186,"66.88,53.97"
2024-05-28_12-58-22.978020,"73.32,82.23"
2024-05-28_12-58-23.010715,"79.79,80.45"
2024-05-28_12-58-23.043432,"85.80,86.92"
2024-05-28_12-58-23.072194,"85.24,77.73"
2024-05-28_12-58-23.104974,"101.39,78.24"
2024-05-28_12-58-23.137741,"112.06,57.33"
2024-05-28_12-58-23.170457,"91.51,54.75"
2024-05-28_12-58-23.203287,"86.26,54.21"
2024-05-28_12-58-23.236027,"60.40,58.91"
2024-05-28_12-58-23.268675,"82.76,78.46"
2024-05-28_12-58-23.297452,"70.26,95.43"
2024-05-28_12-58-23.330175,"82.57,87.53"
2024-05-28_12-58-23.362946,"89.06,80.67"
2024-05-28_12-58-23.395712,"98.85,76.37"
2024-05-28_12-58-23.428524,"94.53,69.55"
2024-05-28_12-58-23.461293,"95.08,54.48"
2024-05-28_12-58-23.493938,"96.94,52.38"
2024-05-28_12-58-23.522718,"68.07,55.07"
2024-05-28_12-58-23.555490,"74.85,60.14"
2024-05-28_12-58-23.588237,"74.73,65.51"
2024-05-28_12-58-23.620999,"83.77,85.43"
2024-05-28_12-58-23.653811,"81.63,76.91"
2024-05-28_12-58-23.686600,"91.61,83.45"
2024-05-28_12-58-23.719268,"103.53,58.51"
2024-05-28_12-58-23.747981,"88.15,54.36"
2024-05-28_12-58-23.780766,"93.28,54.53"
2024-05-28_12-58-23.813483,"83.11,57.88"
2024-05-28_12-58-23.846241,"79.84,49.69"
2024-05-28_12-58-23.879016,"67.77,69.63"
2024-05-28_12-58-23.911871,"79.15,80.19"
2024-05-28_12-58-23.944480,"96.13,83.76"
2024-05-28_12-58-23.977204,"97.62,78.39"
2024-05-28_12-58-24.006026,"89.75,79.87"
2024-05-28_12-58-24.038780,"107.18,52.76"
2024-05-28_12-58-24.071594,"99.04,51.79"
2024-05-28_12-58-24.104323,"88.17,54.54"
2024-05-28_12-58-24.137103,"70.29,58.07"
2024-05-28_12-58-24.169771,"85.46,57.48"
2024-05-28_12-58-24.202461,"70.47,74.97"
2024-05-28_12-58-24.231254,"82.09,78.85"
2024-05-28_12-58-24.264070,"86.29,88.35"
2024-05-28_12-58-24.296824,"105.16,79.38"
2024-05-28_12-58-24.329580,"85.00,55.34"
2024-05-28_12-58-24.362304,"107.80,53.30"
2024-05-28_12-58-24.395044,"102.24,57.18"
2024-05-28_12-58-24.427925,"72.53,48.49"
2024-05-28_12-58-24.456536,"70.42,58.53"
2024-05-28_12-58-24.489294,"72.20,62.07"
2024-05-28_12-58-24.522081,"73.94,89.63"
2024-05-28_12-58-24.554892,"87.71,86.98"
2024-05-28_12-58-24.587595,"85.55,86.47"
2024-05-28_12-58-24.620320,"105.55,81.19"
2024-05-28_12-58-24.653009,"97.56,52.00"
2024-05-28_12-58-24.682328,"99.61,53.19"
2024-05-28_12-58-24.714583,"98.26,57.73"
2024-05-28_12-58-24.747335,"62.27,57.43"
2024-05-28_12-58-24.780072,"76.36,81.84"
2024-05-28_12-58-24.812853,"68.48,82.31"
2024-05-28_12-58-24.845612,"83.37,85.47"
2024-05-28_12-58-24.878254,"93.38,96.65"
2024-05-28_12-58-24.907064,"90.38,74.26"
2024-05-28_12-58-24.939836,"103.27,67.68"
2024-05-28_12-58-24.972631,"97.68,57.43"
2024-05-28_12-58-25.005413,"101.17,47.06"
2024-05-28_12-58-25.038160,"84.05,58.40"
2024-05-28_12-58-25.070901,"56.09,57.72"
2024-05-28_12-58-25.103548,"74.26,76.11"
2024-05-28_12-58-25.132318,"78.26,86.40"
2024-05-28_12-58-25.165074,"79.65,86.00"
2024-05-28_12-58-25.197953,"97.05,85.23"
2024-05-28_12-58-25.230620,"91.54,76.81"
2024-05-28_12-58-25.263388,"98.73,68.44"
2024-05-28_12-58-25.296231,"105.66,57.05"
2024-05-28_12-58-25.328898,"96.33,54.15"
2024-05-28_12-58-25.357549,"74.42,54.64"
2024-05-28_12-58-25.390360,"74.10,56.37"
2024-05-28_12-58-25.423134,"71.80,98.71"
2024-05-28_12-58-25.455925,"81.54,92.09"
2024-05-28_12-58-25.488690,"82.88,79.25"
2024-05-28_12-58-25.521382,"93.75,82.67"
2024-05-28_12-58-25.554098,"97.50,73.34"
2024-05-28_12-58-25.582917,"98.92,46.73"
2024-05-28_12-58-25.615663,"109.55,56.80"
2024-05-28_12-58-25.648383,"77.20,55.52"
2024-05-28_12-58-25.681206,"69.80,55.30"
2024-05-28_12-58-25.713984,"82.71,69.89"
2024-05-28_12-58-25.751104,"75.65,83.12"
2024-05-28_12-58-25.779362,"87.36,101.49"
2024-05-28_12-58-25.808324,"86.64,75.84"
2024-05-28_12-58-25.840930,"91.93,84.80"
2024-05-28_12-58-25.873673,"111.33,73.18"
2024-05-28_12-58-25.906573,"94.46,53.79"
2024-05-28_12-58-25.939255,"103.74,53.79"
2024-05-28_12-58-25.971954,"69.89,54.42"
2024-05-28_12-58-26.004638,"67.04,53.61"
2024-05-28_12-58-26.033407,"73.24,98.89"
2024-05-28_12-58-26.066319,"81.01,80.87"
2024-05-28_12-58-26.098993,"78.72,90.50"
2024-05-28_12-58-26.131685,"78.80,79.79"
2024-05-28_12-58-26.164470,"97.05,78.78"
2024-05-28_12-58-26.197248,"112.19,57.18"
2024-05-28_12-58-26.229921,"87.85,54.31"
2024-05-28_12-58-26.258702,"95.60,54.15"
2024-05-28_12-58-26.291463,"64.88,58.36"
2024-05-28_12-58-26.324336,"77.79,47.31"
2024-05-28_12-58-26.356990,"65.58,90.92"
2024-05-28_12-58-26.389797,"90.89,91.92"
2024-05-28_12-58-26.422634,"82.77,83.59"
2024-05-28_12-58-26.455227,"100.19,73.94"
2024-05-28_12-58-26.483956,"92.58,70.34"
2024-05-28_12-58-26.516744,"98.03,54.63"
2024-05-28_12-58-26.549527,"98.72,51.58"
2024-05-28_12-58-26.582349,"72.64,55.32"
2024-05-28_12-58-26.615118,"65.86,58.38"
2024-05-28_12-58-26.647828,"77.79,69.20"
2024-05-28_12-58-26.681672,"75.25,89.20"
2024-05-28_12-58-26.713187,"85.47,86.37"
2024-05-28_12-58-26.742043,"93.84,88.13"
2024-05-28_12-58-26.774797,"104.78,81.93"
2024-05-28_12-58-26.807474,"87.73,54.79"
2024-05-28_12-58-26.840248,"106.96,53.49"
2024-05-28_12-58-26.873002,"93.38,56.37"
2024-05-28_12-58-26.905831,"67.04,49.06"
2024-05-28_12-58-26.934531,"78.26,82.67"
2024-05-28_12-58-26.967267,"67.76,84.65"
2024-05-28_12-58-27.000030,"77.65,89.44"
2024-05-28_12-58-27.032876,"98.58,86.21"
2024-05-28_12-58-27.065620,"95.11,84.39"
2024-05-28_12-58-27.098350,"103.79,68.84"
2024-05-28_12-58-27.131012,"75.31,51.85"
2024-05-28_12-58-27.163711,"95.67,54.46"
2024-05-28_12-58-27.192493,"87.47,57.96"
2024-05-28_12-58-27.225270,"62.28,57.40"
2024-05-28_12-58-27.257988,"74.53,75.53"
2024-05-28_12-58-27.290789,"68.08,82.16"
2024-05-28_12-58-27.323557,"84.82,85.37"
2024-05-28_12-58-27.356306,"95.83,92.28"
2024-05-28_12-58-27.388995,"82.80,76.36"
2024-05-28_12-58-27.417777,"106.00,68.54"
2024-05-28_12-58-27.450547,"98.41,57.15"
2024-05-28_12-58-27.483285,"107.78,46.92"
2024-05-28_12-58-27.516057,"80.80,57.87"
2024-05-28_12-58-27.548837,"71.57,57.99"
2024-05-28_12-58-27.581596,"71.56,56.24"
2024-05-28_12-58-27.614273,"82.45,86.60"
2024-05-28_12-58-27.643088,"78.27,90.11"
2024-05-28_12-58-27.675928,"95.18,87.01"
2024-05-28_12-58-27.708608,"96.70,70.70"
2024-05-28_12-58-27.741484,"99.38,53.23"
2024-05-28_12-58-27.774147,"83.97,57.96"
2024-05-28_12-58-27.806882,"88.27,54.86"
2024-05-28_12-58-27.839551,"72.00,55.85"
2024-05-28_12-58-27.868391,"72.27,57.67"
2024-05-28_12-58-27.901141,"74.14,77.41"
2024-05-28_12-58-27.933885,"86.51,93.29"
2024-05-28_12-58-27.966640,"76.84,80.07"
2024-05-28_12-58-27.999421,"89.32,92.30"
2024-05-28_12-58-28.032136,"94.59,57.61"
2024-05-28_12-58-28.064889,"98.26,47.61"
2024-05-28_12-58-28.094602,"103.77,57.74"
2024-05-28_12-58-28.126557,"72.83,56.02"
2024-05-28_12-58-28.159325,"77.36,54.11"
2024-05-28_12-58-28.192056,"80.92,93.60"
2024-05-28_12-58-28.224724,"74.69,84.66"
2024-05-28_12-58-28.259843,"91.32,99.02"
2024-05-28_12-58-28.298351,"75.71,80.54"
2024-05-28_12-58-28.319076,"83.72,77.10"
2024-05-28_12-58-28.351865,"103.79,58.20"
2024-05-28_12-58-28.384414,"93.74,53.59"
2024-05-28_12-58-28.417200,"101.23,54.71"
2024-05-28_12-58-28.449956,"70.92,53.73"
2024-05-28_12-58-28.482656,"68.79,52.27"
2024-05-28_12-58-28.515331,"73.07,98.36"
2024-05-28_12-58-28.544174,"79.00,81.98"
2024-05-28_12-58-28.576933,"80.90,89.27"
2024-05-28_12-58-28.609837,"82.04,78.60"
2024-05-28_12-58-28.642543,"97.05,64.85"
2024-05-28_12-58-28.675283,"96.64,57.93"
2024-05-28_12-58-28.708113,"86.66,54.85"
2024-05-28_12-58-28.740706,"96.45,55.11"
2024-05-28_12-58-28.769410,"64.71,58.47"
2024-05-28_12-58-28.802168,"89.75,48.26"
2024-05-28_12-58-28.834979,"67.03,82.70"
2024-05-28_12-58-28.867734,"79.55,80.97"
2024-05-28_12-58-28.900517,"80.93,85.20"
2024-05-28_12-58-28.933194,"99.52,74.36"
2024-05-28_12-58-28.965862,"92.09,70.22"
2024-05-28_12-58-28.994637,"108.38,54.04"
2024-05-28_12-58-29.027416,"99.62,51.96"
2024-05-28_12-58-29.060202,"76.28,53.95"
2024-05-28_12-58-29.092978,"63.52,58.96"
2024-05-28_12-58-29.125790,"78.17,63.46"
2024-05-28_12-58-29.158518,"70.85,90.11"
2024-05-28_12-58-29.191181,"81.72,81.54"
2024-05-28_12-58-29.219910,"94.71,88.94"
2024-05-28_12-58-29.252695,"108.11,81.59"
2024-05-28_12-58-29.285417,"88.18,54.45"
2024-05-28_12-58-29.318202,"108.57,54.22"
2024-05-28_12-58-29.350968,"99.18,56.96"
2024-05-28_12-58-29.383731,"68.50,49.40"
2024-05-28_12-58-29.416434,"82.37,58.77"
2024-05-28_12-58-29.445240,"68.69,75.84"
2024-05-28_12-58-29.477980,"78.59,89.05"
2024-05-28_12-58-29.510751,"88.42,88.47"
2024-05-28_12-58-29.543512,"89.66,82.27"
2024-05-28_12-58-29.576240,"103.00,68.30"
2024-05-28_12-58-29.608969,"99.31,51.63"
2024-05-28_12-58-29.641689,"98.55,53.80"
2024-05-28_12-58-29.670438,"92.14,58.28"
2024-05-28_12-58-29.703226,"62.89,56.92"
2024-05-28_12-58-29.735977,"74.41,77.07"
2024-05-28_12-58-29.768764,"68.41,81.65"
2024-05-28_12-58-29.801548,"82.02,87.38"
2024-05-28_12-58-29.834336,"90.55,91.06"
2024-05-28_12-58-29.866998,"86.28,82.49"
2024-05-28_12-58-29.899714,"106.52,68.63"
2024-05-28_12-58-29.928557,"88.86,58.20"
2024-05-28_12-58-29.961249,"90.77,47.81"
2024-05-28_12-58-29.994047,"83.58,58.89"
2024-05-28_12-58-30.026740,"58.62,57.02"
2024-05-28_12-58-30.059542,"73.20,58.65"
2024-05-28_12-58-30.092254,"78.13,86.61"
2024-05-28_12-58-30.120986,"78.39,85.32"
2024-05-28_12-58-30.153741,"96.10,85.13"
2024-05-28_12-58-30.186594,"94.51,77.43"
2024-05-28_12-58-30.219299,"96.97,52.26"
2024-05-28_12-58-30.252061,"107.22,57.17"
2024-05-28_12-58-30.284862,"99.69,54.35"
2024-05-28_12-58-30.318590,"76.91,54.32"
2024-05-28_12-58-30.350229,"75.99,55.70"
2024-05-28_12-58-30.379011,"72.05,88.99"
2024-05-28_12-58-30.411762,"85.04,90.28"
2024-05-28_12-58-30.444643,"82.94,81.38"
2024-05-28_12-58-30.477356,"91.96,81.07"
2024-05-28_12-58-30.510129,"96.06,73.98"
2024-05-28_12-58-30.542869,"97.69,46.80"
2024-05-28_12-58-30.575522,"111.99,57.07"
2024-05-28_12-58-30.604269,"82.70,55.10"
2024-05-28_12-58-30.637132,"73.26,55.01"
2024-05-28_12-58-30.669853,"75.95,55.60"
2024-05-28_12-58-30.702681,"73.46,75.21"
2024-05-28_12-58-30.735539,"71.05,97.23"
2024-05-28_12-58-30.768076,"80.27,83.86"
2024-05-28_12-58-30.800760,"95.10,83.33"
2024-05-28_12-58-30.829576,"101.81,71.40"
2024-05-28_12-58-30.862387,"94.26,54.19"
2024-05-28_12-58-30.895307,"81.06,55.53"
2024-05-28_12-58-30.927884,"85.78,52.84"
2024-05-28_12-58-30.960657,"67.92,54.08"
2024-05-28_12-58-30.993367,"72.37,57.16"
2024-05-28_12-58-31.026029,"71.13,85.21"
2024-05-28_12-58-31.054859,"85.85,84.57"
2024-05-28_12-58-31.087610,"84.37,83.10"
2024-05-28_12-58-31.120351,"100.89,86.03"
2024-05-28_12-58-31.153128,"107.29,73.24"
2024-05-28_12-58-31.185874,"88.89,54.48"
2024-05-28_12-58-31.218645,"110.09,54.04"
2024-05-28_12-58-31.251328,"74.86,57.90"
2024-05-28_12-58-31.280057,"78.62,50.89"
2024-05-28_12-58-31.312866,"68.37,63.81"
2024-05-28_12-58-31.345629,"80.10,79.60"
2024-05-28_12-58-31.378392,"87.02,82.65"
2024-05-28_12-58-31.411180,"95.18,80.42"
2024-05-28_12-58-31.443892,"91.63,80.83"
2024-05-28_12-58-31.476615,"107.25,52.78"
2024-05-28_12-58-31.505344,"99.21,51.47"
2024-05-28_12-58-31.538079,"90.60,53.79"
2024-05-28_12-58-31.570865,"65.45,60.15"
2024-05-28_12-58-31.603725,"73.80,58.12"
2024-05-28_12-58-31.636477,"66.17,92.49"
2024-05-28_12-58-31.669162,"76.62,79.65"
2024-05-28_12-58-31.701861,"82.21,89.27"
2024-05-28_12-58-31.730635,"106.56,84.26"
2024-05-28_12-58-31.763381,"85.66,70.25"
2024-05-28_12-58-31.796132,"107.37,52.60"
2024-05-28_12-58-31.828979,"88.27,57.60"
2024-05-28_12-58-31.861672,"88.06,47.58"
2024-05-28_12-58-31.894430,"72.44,60.26"
2024-05-28_12-58-31.927137,"68.98,58.93"
2024-05-28_12-58-31.955871,"67.39,92.29"
2024-05-28_12-58-31.988696,"86.79,85.28"
2024-05-28_12-58-32.021388,"83.22,85.64"
2024-05-28_12-58-32.054183,"92.40,85.87"
2024-05-28_12-58-32.086942,"97.67,70.15"
2024-05-28_12-58-32.119702,"99.99,53.08"
2024-05-28_12-58-32.152420,"104.68,57.27"
2024-05-28_12-58-32.181168,"81.72,54.70"
2024-05-28_12-58-32.213907,"69.20,54.80"
2024-05-28_12-58-32.246718,"84.45,56.68"
2024-05-28_12-58-32.279456,"74.61,75.16"
2024-05-28_12-58-32.312176,"96.73,90.06"
2024-05-28_12-58-32.345626,"84.63,80.12"
2024-05-28_12-58-32.377712,"92.36,87.46"
2024-05-28_12-58-32.406466,"91.40,59.26"
2024-05-28_12-58-32.439216,"97.81,47.66"
2024-05-28_12-58-32.472020,"113.82,56.88"
2024-05-28_12-58-32.504772,"73.10,56.14"
2024-05-28_12-58-32.537512,"79.43,54.18"
2024-05-28_12-58-32.570236,"82.62,60.34"
2024-05-28_12-58-32.602904,"78.00,73.42"
2024-05-28_12-58-32.631671,"85.69,90.83"
2024-05-28_12-58-32.664510,"86.41,79.33"
2024-05-28_12-58-32.697239,"91.91,79.95"
2024-05-28_12-58-32.730002,"112.98,57.71"
2024-05-28_12-58-32.762861,"93.93,54.05"
2024-05-28_12-58-32.795583,"95.54,55.36"
2024-05-28_12-58-32.828218,"72.62,53.94"
2024-05-28_12-58-32.856953,"66.53,55.92"
2024-05-28_12-58-32.889729,"75.74,104.76"
2024-05-28_12-58-32.922480,"77.14,82.08"
2024-05-28_12-58-32.955323,"94.35,83.56"
2024-05-28_12-58-32.988082,"88.01,77.45"
2024-05-28_12-58-33.020814,"94.59,79.21"
2024-05-28_12-58-33.053499,"111.01,57.36"
2024-05-28_12-58-33.082268,"87.15,54.65"
2024-05-28_12-58-33.115047,"106.06,54.63"
2024-05-28_12-58-33.147848,"72.96,58.39"
2024-05-28_12-58-33.180808,"79.61,47.66"
2024-05-28_12-58-33.213281,"62.68,99.99"
2024-05-28_12-58-33.246067,"80.63,80.60"
2024-05-28_12-58-33.278757,"87.20,93.48"
2024-05-28_12-58-33.307469,"98.53,78.14"
2024-05-28_12-58-33.340286,"90.72,81.18"
2024-05-28_12-58-33.373038,"106.70,52.73"
2024-05-28_12-58-33.405802,"97.71,51.69"
2024-05-28_12-58-33.438555,"96.08,53.62"
2024-05-28_12-58-33.471336,"69.22,60.28"
2024-05-28_12-58-33.504004,"74.83,57.95"
2024-05-28_12-58-33.533333,"64.22,94.72"
2024-05-28_12-58-33.565570,"74.65,82.10"
2024-05-28_12-58-33.598335,"78.17,94.53"
2024-05-28_12-58-33.631099,"91.94,86.97"
2024-05-28_12-58-33.663911,"89.16,72.63"
2024-05-28_12-58-33.696645,"106.55,53.60"
2024-05-28_12-58-33.729299,"89.80,57.64"
2024-05-28_12-58-33.762061,"97.47,47.14"
2024-05-28_12-58-33.790839,"75.81,59.56"
2024-05-28_12-58-33.823559,"69.99,58.85"
2024-05-28_12-58-33.856514,"65.65,95.82"
2024-05-28_12-58-33.889202,"82.97,87.14"
2024-05-28_12-58-33.921855,"77.87,87.91"
2024-05-28_12-58-33.954568,"99.55,84.26"
2024-05-28_12-58-33.987290,"99.48,67.68"
2024-05-28_12-58-34.017999,"99.81,52.29"
2024-05-28_12-58-34.048912,"106.59,57.46"
2024-05-28_12-58-34.081642,"93.38,54.77"
2024-05-28_12-58-34.114484,"76.53,54.83"
2024-05-28_12-58-34.147187,"78.19,55.69"
2024-05-28_12-58-34.179827,"72.93,86.24"
2024-05-28_12-58-34.212549,"83.52,91.33"
2024-05-28_12-58-34.241352,"84.19,81.98"
2024-05-28_12-58-34.274074,"93.11,79.54"
2024-05-28_12-58-34.306869,"91.71,70.79"
2024-05-28_12-58-34.339637,"97.78,47.22"
2024-05-28_12-58-34.372507,"112.13,57.28"
2024-05-28_12-58-34.405152,"89.46,55.20"
2024-05-28_12-58-34.437891,"76.03,55.11"
2024-05-28_12-58-34.466842,"74.11,62.38"
2024-05-28_12-58-34.499408,"76.91,55.47"
2024-05-28_12-58-34.532150,"78.34,93.44"
2024-05-28_12-58-34.564948,"85.28,84.12"
2024-05-28_12-58-34.597660,"90.84,80.15"
2024-05-28_12-58-34.630439,"103.25,80.17"
2024-05-28_12-58-34.663117,"93.77,70.80"
2024-05-28_12-58-34.691829,"108.72,53.90"
2024-05-28_12-58-34.724662,"97.29,51.94"
2024-05-28_12-58-34.757432,"73.82,54.08"
2024-05-28_12-58-34.790216,"60.56,59.74"
2024-05-28_12-58-34.822948,"79.02,61.88"
2024-05-28_12-58-34.855712,"71.58,90.79"
2024-05-28_12-58-34.888385,"81.87,88.19"
2024-05-28_12-58-34.917127,"89.17,87.70"
2024-05-28_12-58-34.949890,"106.39,77.79"
2024-05-28_12-58-34.982676,"86.49,55.36"
2024-05-28_12-58-35.015443,"108.05,53.56"
2024-05-28_12-58-35.048223,"103.16,57.23"
2024-05-28_12-58-35.080957,"78.86,48.48"
2024-05-28_12-58-35.113645,"68.43,60.37"
2024-05-28_12-58-35.142508,"76.56,86.98"
2024-05-28_12-58-35.175240,"69.00,92.87"
2024-05-28_12-58-35.209423,"90.89,94.88"
2024-05-28_12-58-35.243259,"68.11,95.51"
2024-05-28_12-58-35.273518,"87.51,63.55"
2024-05-28_12-58-35.306380,"97.64,52.06"
2024-05-28_12-58-35.338909,"89.34,52.95"
2024-05-28_12-58-35.367748,"108.67,57.31"
2024-05-28_12-58-35.400499,"74.20,55.70"
2024-05-28_12-58-35.433246,"74.07,53.52"
2024-05-28_12-58-35.466039,"80.83,76.07"
2024-05-28_12-58-35.498837,"77.69,84.47"
2024-05-28_12-58-35.531524,"85.03,101.98"
2024-05-28_12-58-35.564183,"77.72,78.98"
2024-05-28_12-58-35.593032,"93.55,87.73"
2024-05-28_12-58-35.625798,"100.23,73.81"
2024-05-28_12-58-35.658645,"97.74,47.59"
2024-05-28_12-58-35.691282,"100.07,58.14"
2024-05-28_12-58-35.724118,"76.25,55.95"
2024-05-28_12-58-35.756808,"75.44,55.13"
2024-05-28_12-58-35.789483,"71.63,56.33"
2024-05-28_12-58-35.818257,"72.91,76.25"
2024-05-28_12-58-35.851030,"77.18,94.79"
2024-05-28_12-58-35.883702,"81.78,80.73"
2024-05-28_12-58-35.916555,"87.21,85.09"
2024-05-28_12-58-35.949339,"101.48,59.98"
2024-05-28_12-58-35.982098,"93.16,54.48"
2024-05-28_12-58-36.014750,"105.79,54.85"
2024-05-28_12-58-36.043677,"89.62,52.94"
2024-05-28_12-58-36.076290,"69.84,54.10"
2024-05-28_12-58-36.109073,"75.44,73.79"
2024-05-28_12-58-36.141859,"70.85,89.16"
2024-05-28_12-58-36.174567,"81.97,85.11"
2024-05-28_12-58-36.207380,"82.77,83.18"
2024-05-28_12-58-36.239997,"93.92,83.56"
2024-05-28_12-58-36.272706,"103.56,73.90"
2024-05-28_12-58-36.301561,"88.78,54.61"
2024-05-28_12-58-36.334348,"106.23,54.51"
2024-05-28_12-58-36.370401,"86.29,58.00"
2024-05-28_12-58-36.399904,"69.22,48.62"
2024-05-28_12-58-36.432625,"76.22,84.93"
2024-05-28_12-58-36.465266,"67.58,81.71"
2024-05-28_12-58-36.494047,"78.48,89.40"
2024-05-28_12-58-36.526819,"80.70,91.05"
2024-05-28_12-58-36.559970,"87.68,87.51"
2024-05-28_12-58-36.592439,"100.64,69.36"
2024-05-28_12-58-36.625108,"89.41,51.72"
2024-05-28_12-58-36.657919,"84.99,55.08"
2024-05-28_12-58-36.690729,"93.16,58.21"
2024-05-28_12-58-36.719349,"64.87,56.92"
2024-05-28_12-58-36.752130,"68.28,54.76"
2024-05-28_12-58-36.784927,"73.60,60.95"
2024-05-28_12-58-36.817642,"82.37,91.53"
2024-05-28_12-58-36.850411,"80.10,91.48"
2024-05-28_12-58-36.883170,"78.25,79.12"
2024-05-28_12-58-36.915896,"102.24,81.17"
2024-05-28_12-58-36.948501,"99.85,57.65"
2024-05-28_12-58-36.977367,"97.33,47.33"
2024-05-28_12-58-37.010088,"93.90,58.06"
2024-05-28_12-58-37.042970,"62.69,56.36"
2024-05-28_12-58-37.075594,"70.12,54.06"
2024-05-28_12-58-37.108393,"76.69,88.97"
2024-05-28_12-58-37.141102,"81.85,80.06"
2024-05-28_12-58-37.173795,"85.16,98.29"
2024-05-28_12-58-37.202669,"93.93,76.64"
2024-05-28_12-58-37.235437,"94.09,68.52"
2024-05-28_12-58-37.268198,"106.48,57.68"
2024-05-28_12-58-37.300870,"95.38,54.06"
2024-05-28_12-58-37.333636,"104.55,53.43"
2024-05-28_12-58-37.366396,"70.48,54.24"
2024-05-28_12-58-37.399086,"66.71,54.36"
2024-05-28_12-58-37.427842,"78.26,76.40"
2024-05-28_12-58-37.460796,"77.94,80.98"
2024-05-28_12-58-37.493483,"92.92,83.54"
2024-05-28_12-58-37.526205,"82.36,80.44"
2024-05-28_12-58-37.559028,"95.22,80.84"
2024-05-28_12-58-37.592021,"105.83,57.56"
2024-05-28_12-58-37.624555,"87.76,54.66"
2024-05-28_12-58-37.653327,"100.87,55.06"
2024-05-28_12-58-37.685885,"83.74,58.00"
2024-05-28_12-58-37.718699,"69.96,46.90"
2024-05-28_12-58-37.751469,"72.20,80.74"
2024-05-28_12-58-37.784214,"69.14,81.72"
2024-05-28_12-58-37.816911,"78.56,88.74"
2024-05-28_12-58-37.849642,"86.26,88.28"
2024-05-28_12-58-37.878419,"92.00,83.11"
2024-05-28_12-58-37.911232,"102.04,68.31"
2024-05-28_12-58-37.945425,"88.14,51.56"
2024-05-28_12-58-37.976813,"85.63,55.91"
2024-05-28_12-58-38.009515,"80.38,60.10"
2024-05-28_12-58-38.042262,"63.02,56.78"
2024-05-28_12-58-38.075138,"77.97,56.27"
2024-05-28_12-58-38.103714,"69.63,82.18"
2024-05-28_12-58-38.136593,"86.69,89.83"
2024-05-28_12-58-38.169249,"86.30,98.85"
2024-05-28_12-58-38.201978,"81.03,74.18"
2024-05-28_12-58-38.234787,"105.49,68.56"
2024-05-28_12-58-38.267469,"99.74,58.00"
2024-05-28_12-58-38.300199,"104.91,47.45"
2024-05-28_12-58-38.328977,"100.84,58.08"
2024-05-28_12-58-38.361738,"58.83,57.00"
2024-05-28_12-58-38.394551,"71.34,53.45"
2024-05-28_12-58-38.427401,"74.71,71.74"
2024-05-28_12-58-38.460083,"80.15,80.22"
2024-05-28_12-58-38.493005,"76.69,97.24"
2024-05-28_12-58-38.525684,"79.41,74.83"
2024-05-28_12-58-38.554272,"93.85,71.04"
2024-05-28_12-58-38.587030,"105.81,57.49"
2024-05-28_12-58-38.619760,"82.49,54.06"
2024-05-28_12-58-38.652518,"93.23,54.55"
2024-05-28_12-58-38.685288,"69.55,54.28"
2024-05-28_12-58-38.717969,"68.84,53.48"
2024-05-28_12-58-38.750694,"74.18,100.11"
2024-05-28_12-58-38.779424,"78.41,81.17"
2024-05-28_12-58-38.815711,"87.16,82.18"
2024-05-28_12-58-38.845014,"84.73,79.91"
2024-05-28_12-58-38.877737,"99.33,83.76"
2024-05-28_12-58-38.910552,"106.05,72.99"
2024-05-28_12-58-38.943321,"87.65,54.56"
2024-05-28_12-58-38.975971,"104.72,54.41"
2024-05-28_12-58-39.004718,"79.41,57.04"
2024-05-28_12-58-39.037450,"65.99,49.45"
2024-05-28_12-58-39.070282,"72.62,65.34"
2024-05-28_12-58-39.103017,"68.11,82.02"
2024-05-28_12-58-39.135885,"84.43,86.07"
2024-05-28_12-58-39.168540,"90.93,89.17"
2024-05-28_12-58-39.201249,"94.26,83.12"
2024-05-28_12-58-39.229981,"101.44,67.46"
2024-05-28_12-58-39.262773,"99.20,51.71"
2024-05-28_12-58-39.295492,"98.51,53.52"
2024-05-28_12-58-39.328271,"92.85,59.95"
2024-05-28_12-58-39.361059,"63.76,57.25"
2024-05-28_12-58-39.393899,"78.45,85.09"
2024-05-28_12-58-39.426524,"69.02,79.06"
2024-05-28_12-58-39.455293,"92.84,87.51"
2024-05-28_12-58-39.488040,"95.81,91.10"
2024-05-28_12-58-39.520877,"81.43,80.63"
2024-05-28_12-58-39.553558,"105.35,81.70"
2024-05-28_12-58-39.586378,"99.06,57.12"
2024-05-28_12-58-39.619086,"99.41,47.19"
2024-05-28_12-58-39.651827,"104.97,56.92"
2024-05-28_12-58-39.680505,"62.27,57.25"
2024-05-28_12-58-39.713345,"68.43,55.29"
2024-05-28_12-58-39.746124,"80.90,95.87"
2024-05-28_12-58-39.778855,"77.58,82.73"
2024-05-28_12-58-39.811692,"95.69,91.63"
2024-05-28_12-58-39.844387,"84.98,79.78"
2024-05-28_12-58-39.877144,"91.26,79.47"
2024-05-28_12-58-39.909770,"112.20,72.94"
2024-05-28_12-58-39.938553,"95.28,53.75"
2024-05-28_12-58-39.971660,"104.18,54.41"
2024-05-28_12-58-40.004092,"83.94,52.60"
2024-05-28_12-58-40.036924,"69.92,54.63"
2024-05-28_12-58-40.069635,"72.99,56.69"
2024-05-28_12-58-40.102328,"69.96,88.45"
2024-05-28_12-58-40.135029,"85.21,84.36"
2024-05-28_12-58-40.163880,"84.64,86.44"
2024-05-28_12-58-40.196589,"103.20,79.33"
2024-05-28_12-58-40.229480,"104.74,73.51"
2024-05-28_12-58-40.262188,"88.03,54.94"
2024-05-28_12-58-40.294905,"92.32,55.48"
2024-05-28_12-58-40.327617,"88.43,56.83"
2024-05-28_12-58-40.360295,"68.13,50.21"
2024-05-28_12-58-40.389097,"77.47,62.92"
2024-05-28_12-58-40.421902,"69.87,62.91"
2024-05-28_12-58-40.454640,"79.82,88.17"
2024-05-28_12-58-40.487482,"89.73,86.77"
2024-05-28_12-58-40.520217,"82.77,85.56"
2024-05-28_12-58-40.552897,"102.43,82.01"
2024-05-28_12-58-40.585550,"97.08,51.70"
2024-05-28_12-58-40.614353,"100.16,53.50"
2024-05-28_12-58-40.647162,"101.03,57.21"
2024-05-28_12-58-40.679889,"67.99,56.04"
2024-05-28_12-58-40.712652,"67.61,55.13"
2024-05-28_12-58-40.745486,"78.16,85.55"
2024-05-28_12-58-40.778129,"80.73,90.91"
2024-05-28_12-58-40.810849,"85.07,99.44"
2024-05-28_12-58-40.839636,"83.15,79.66"
2024-05-28_12-58-40.872438,"93.28,83.43"
2024-05-28_12-58-40.905134,"103.98,58.46"
2024-05-28_12-58-40.937998,"97.88,47.32"
2024-05-28_12-58-40.970882,"95.75,58.18"
2024-05-28_12-58-41.003458,"74.61,55.98"
2024-05-28_12-58-41.036090,"72.86,54.54"
2024-05-28_12-58-41.064935,"70.94,68.35"
2024-05-28_12-58-41.097692,"73.96,84.47"
2024-05-28_12-58-41.130448,"79.83,92.80"
2024-05-28_12-58-41.163226,"81.83,83.82"
2024-05-28_12-58-41.195984,"79.32,86.55"
2024-05-28_12-58-41.228690,"108.62,72.98"
2024-05-28_12-58-41.261372,"94.53,53.57"
2024-05-28_12-58-41.290244,"105.54,54.38"
2024-05-28_12-58-41.322886,"85.81,52.30"
2024-05-28_12-58-41.355711,"67.22,54.84"
2024-05-28_12-58-41.388478,"74.41,60.07"
2024-05-28_12-58-41.421203,"75.61,61.79"
2024-05-28_12-58-41.453954,"75.65,87.16"
2024-05-28_12-58-41.486654,"80.38,82.65"
2024-05-28_12-58-41.515445,"87.23,92.10"
2024-05-28_12-58-41.548196,"98.56,72.79"
2024-05-28_12-58-41.580995,"87.28,54.92"
2024-05-28_12-58-41.613768,"108.61,54.47"
2024-05-28_12-58-41.646530,"89.84,58.80"
2024-05-28_12-58-41.679361,"78.88,47.76"
2024-05-28_12-58-41.711971,"69.68,59.73"
2024-05-28_12-58-41.740774,"77.76,87.46"
2024-05-28_12-58-41.773526,"67.85,94.40"
2024-05-28_12-58-41.806282,"91.96,94.74"
2024-05-28_12-58-41.839066,"81.08,83.20"
2024-05-28_12-58-41.871822,"95.38,91.62"
2024-05-28_12-58-41.904557,"95.27,52.71"
2024-05-28_12-58-41.937326,"98.76,53.18"
2024-05-28_12-58-41.967087,"91.76,58.33"
2024-05-28_12-58-42.002138,"68.45,55.80"
2024-05-28_12-58-42.031691,"92.56,56.68"
2024-05-28_12-58-42.064304,"77.77,57.57"
2024-05-28_12-58-42.097078,"73.40,78.93"
2024-05-28_12-58-42.129876,"83.38,91.59"
2024-05-28_12-58-42.162564,"80.01,78.73"
2024-05-28_12-58-42.191312,"89.22,83.17"
2024-05-28_12-58-42.224144,"92.09,74.32"
2024-05-28_12-58-42.256842,"97.34,47.46"
2024-05-28_12-58-42.289594,"112.99,57.65"
2024-05-28_12-58-42.322275,"87.27,55.02"
2024-05-28_12-58-42.355082,"81.12,55.01"
2024-05-28_12-58-42.387831,"60.56,59.42"
2024-05-28_12-58-42.416472,"87.62,48.18"
2024-05-28_12-58-42.449290,"66.15,80.58"
2024-05-28_12-58-42.482070,"80.78,80.13"
2024-05-28_12-58-42.514882,"77.10,89.05"
2024-05-28_12-58-42.547612,"87.16,86.18"
2024-05-28_12-58-42.580401,"98.61,70.94"
2024-05-28_12-58-42.613091,"107.81,54.10"
2024-05-28_12-58-42.645883,"76.85,51.73"
2024-05-28_12-58-42.674622,"82.13,54.93"
2024-05-28_12-58-42.707344,"70.22,59.47"
2024-05-28_12-58-42.740071,"76.12,58.57"
2024-05-28_12-58-42.772792,"69.00,59.94"
2024-05-28_12-58-42.805639,"77.19,80.94"
2024-05-28_12-58-42.838284,"94.41,86.62"
2024-05-28_12-58-42.871018,"98.47,86.17"
2024-05-28_12-58-42.899796,"84.87,79.03"
2024-05-28_12-58-42.932556,"105.99,68.99"
2024-05-28_12-58-42.965308,"98.30,57.92"
2024-05-28_12-58-42.998139,"103.07,47.75"
2024-05-28_12-58-43.030853,"85.45,59.39"
2024-05-28_12-58-43.063590,"61.24,57.40"
2024-05-28_12-58-43.096255,"79.48,54.87"
2024-05-28_12-58-43.125080,"76.41,72.16"
2024-05-28_12-58-43.157894,"83.47,80.36"
2024-05-28_12-58-43.190642,"78.54,93.91"
2024-05-28_12-58-43.223429,"85.46,77.77"
2024-05-28_12-58-43.256161,"97.98,82.01"
2024-05-28_12-58-43.288884,"106.10,57.63"
2024-05-28_12-58-43.321588,"95.48,54.51"
2024-05-28_12-58-43.350373,"99.09,54.23"
2024-05-28_12-58-43.383156,"65.56,55.41"
2024-05-28_12-58-43.415934,"68.23,53.48"
2024-05-28_12-58-43.448650,"73.34,85.47"
2024-05-28_12-58-43.481400,"78.62,82.47"
2024-05-28_12-58-43.514127,"85.48,93.42"
2024-05-28_12-58-43.546857,"86.11,77.87"
2024-05-28_12-58-43.575977,"86.65,69.97"
2024-05-28_12-58-43.608917,"91.60,60.27"
2024-05-28_12-58-43.641238,"81.01,55.81"
2024-05-28_12-58-43.673987,"85.11,56.77"
2024-05-28_12-58-43.706750,"77.40,59.35"
2024-05-28_12-58-43.739434,"72.67,47.60"
2024-05-28_12-58-43.772093,"78.15,87.44"
2024-05-28_12-58-43.800857,"68.39,65.87"
2024-05-28_12-58-43.833653,"87.15,85.29"
2024-05-28_12-58-43.866359,"87.79,82.11"
2024-05-28_12-58-43.899179,"87.61,92.32"
2024-05-28_12-58-43.931885,"98.22,69.50"
2024-05-28_12-58-43.964697,"101.64,52.17"
2024-05-28_12-58-43.997388,"85.56,54.81"
2024-05-28_12-58-44.026203,"94.11,59.02"
2024-05-28_12-58-44.059053,"64.21,57.20"
2024-05-28_12-58-44.091832,"71.55,73.92"
2024-05-28_12-58-44.124695,"76.83,70.04"
2024-05-28_12-58-44.157249,"74.63,74.49"
2024-05-28_12-58-44.190039,"82.68,103.23"
2024-05-28_12-58-44.222677,"84.57,80.22"
2024-05-28_12-58-44.251392,"98.43,82.14"
2024-05-28_12-58-44.284164,"103.77,58.11"
2024-05-28_12-58-44.316928,"99.45,47.87"
2024-05-28_12-58-44.349718,"106.89,57.92"
2024-05-28_12-58-44.382441,"70.77,57.02"
2024-05-28_12-58-44.415179,"70.30,56.69"
2024-05-28_12-58-44.447925,"71.27,56.92"
2024-05-28_12-58-44.476666,"72.10,78.39"
2024-05-28_12-58-44.509465,"80.04,93.90"
2024-05-28_12-58-44.542262,"79.42,82.46"
2024-05-28_12-58-44.574964,"83.56,88.94"
2024-05-28_12-58-44.607741,"104.01,73.23"
2024-05-28_12-58-44.640531,"94.92,53.83"
2024-05-28_12-58-44.673250,"97.07,54.63"
2024-05-28_12-58-44.705958,"100.03,52.32"
2024-05-28_12-58-44.734759,"69.39,54.44"
2024-05-28_12-58-44.767527,"63.63,58.75"
2024-05-28_12-58-44.800288,"79.76,62.65"
2024-05-28_12-58-44.832982,"69.24,91.32"
2024-05-28_12-58-44.865879,"82.99,79.02"
2024-05-28_12-58-44.898504,"87.58,87.09"
2024-05-28_12-58-44.931191,"103.30,88.40"
2024-05-28_12-58-44.960013,"95.53,71.99"
2024-05-28_12-58-44.992882,"108.90,53.20"
2024-05-28_12-58-45.025544,"97.88,57.78"
2024-05-28_12-58-45.058327,"87.19,47.70"
2024-05-28_12-58-45.091092,"73.13,60.27"
2024-05-28_12-58-45.123862,"69.95,58.38"
2024-05-28_12-58-45.156470,"64.96,95.69"
2024-05-28_12-58-45.185260,"86.98,85.68"
2024-05-28_12-58-45.218075,"80.69,90.08"
2024-05-28_12-58-45.250854,"96.42,86.79"
2024-05-28_12-58-45.283602,"91.40,70.19"
2024-05-28_12-58-45.316344,"95.80,53.24"
2024-05-28_12-58-45.349001,"87.70,58.37"
2024-05-28_12-58-45.381798,"102.36,54.61"
2024-05-28_12-58-45.410519,"82.60,55.34"
2024-05-28_12-58-45.443279,"64.07,55.44"
2024-05-28_12-58-45.478301,"77.82,80.49"
2024-05-28_12-58-45.508838,"71.00,91.32"
2024-05-28_12-58-45.541560,"91.45,90.57"
2024-05-28_12-58-45.574270,"83.71,84.17"
2024-05-28_12-58-45.607050,"85.87,79.06"
2024-05-28_12-58-45.635827,"99.18,78.66"
2024-05-28_12-58-45.668611,"113.40,57.37"
2024-05-28_12-58-45.701300,"88.78,54.65"
2024-05-28_12-58-45.734168,"102.39,53.76"
2024-05-28_12-58-45.766853,"69.39,59.05"
