timestamp,EMG
2024-05-28_13-16-39.596025,"75.90,66.43"
2024-05-28_13-16-39.628548,"109.83,87.99"
2024-05-28_13-16-39.661346,"80.88,74.43"
2024-05-28_13-16-39.691215,"71.14,79.68"
2024-05-28_13-16-39.723197,"74.63,74.47"
2024-05-28_13-16-39.755787,"88.27,65.83"
2024-05-28_13-16-39.788415,"106.70,67.57"
2024-05-28_13-16-39.821184,"96.43,54.18"
2024-05-28_13-16-39.853884,"89.11,52.80"
2024-05-28_13-16-39.886536,"60.01,55.45"
2024-05-28_13-16-39.915327,"94.70,92.21"
2024-05-28_13-16-39.948118,"94.54,72.85"
2024-05-28_13-16-39.980869,"71.88,76.17"
2024-05-28_13-16-40.013677,"83.32,77.20"
2024-05-28_13-16-40.046480,"83.25,70.39"
2024-05-28_13-16-40.079135,"82.39,77.62"
2024-05-28_13-16-40.111811,"94.65,83.86"
2024-05-28_13-16-40.140689,"77.74,53.96"
2024-05-28_13-16-40.173446,"81.13,63.91"
2024-05-28_13-16-40.206193,"87.91,76.35"
2024-05-28_13-16-40.238929,"93.22,83.52"
2024-05-28_13-16-40.271756,"92.47,82.38"
2024-05-28_13-16-40.304553,"92.46,74.18"
2024-05-28_13-16-40.337090,"77.02,82.02"
2024-05-28_13-16-40.365935,"87.97,71.47"
2024-05-28_13-16-40.398697,"87.22,82.03"
2024-05-28_13-16-40.431398,"87.32,68.74"
2024-05-28_13-16-40.464218,"93.23,53.44"
2024-05-28_13-16-40.496942,"67.06,95.76"
2024-05-28_13-16-40.529738,"94.03,92.16"
2024-05-28_13-16-40.562385,"83.44,87.12"
2024-05-28_13-16-40.591145,"85.36,78.05"
2024-05-28_13-16-40.623935,"77.74,72.65"
2024-05-28_13-16-40.656808,"86.78,76.85"
2024-05-28_13-16-40.689496,"95.49,84.31"
2024-05-28_13-16-40.722270,"76.52,70.15"
2024-05-28_13-16-40.754996,"101.85,52.30"
2024-05-28_13-16-40.787704,"78.04,54.11"
2024-05-28_13-16-40.816430,"81.25,72.94"
2024-05-28_13-16-40.849205,"83.19,88.01"
2024-05-28_13-16-40.881984,"76.26,67.72"
2024-05-28_13-16-40.914766,"85.02,78.76"
2024-05-28_13-16-40.947540,"81.45,72.96"
2024-05-28_13-16-40.980235,"83.08,82.16"
2024-05-28_13-16-41.012937,"88.83,80.88"
2024-05-28_13-16-41.041780,"85.78,68.46"
2024-05-28_13-16-41.074514,"98.55,52.00"
2024-05-28_13-16-41.107254,"68.09,88.10"
2024-05-28_13-16-41.140023,"83.58,82.76"
2024-05-28_13-16-41.172800,"94.20,84.12"
2024-05-28_13-16-41.205537,"79.28,78.44"
2024-05-28_13-16-41.238229,"85.03,76.80"
2024-05-28_13-16-41.266990,"80.53,83.28"
2024-05-28_13-16-41.299788,"77.33,69.81"
2024-05-28_13-16-41.332619,"90.05,76.42"
2024-05-28_13-16-41.365364,"92.22,57.49"
2024-05-28_13-16-41.398081,"91.92,46.04"
2024-05-28_13-16-41.430828,"74.03,76.24"
2024-05-28_13-16-41.463513,"89.13,84.89"
2024-05-28_13-16-41.492289,"70.65,71.86"
2024-05-28_13-16-41.525069,"74.54,76.51"
2024-05-28_13-16-41.557819,"90.50,82.56"
2024-05-28_13-16-41.590588,"84.37,80.00"
2024-05-28_13-16-41.623343,"84.01,67.94"
2024-05-28_13-16-41.656107,"81.51,81.75"
2024-05-28_13-16-41.688824,"98.73,56.99"
2024-05-28_13-16-41.717549,"65.50,77.45"
2024-05-28_13-16-41.750351,"91.04,87.81"
2024-05-28_13-16-41.783073,"80.69,65.82"
2024-05-28_13-16-41.815842,"80.08,80.20"
2024-05-28_13-16-41.848680,"92.38,85.45"
2024-05-28_13-16-41.881396,"75.00,71.32"
2024-05-28_13-16-41.914098,"87.57,79.41"
2024-05-28_13-16-41.942821,"85.03,71.67"
2024-05-28_13-16-41.975595,"96.93,64.23"
2024-05-28_13-16-42.008418,"83.17,56.30"
2024-05-28_13-16-42.041215,"80.41,66.57"
2024-05-28_13-16-42.073972,"78.29,71.39"
2024-05-28_13-16-42.106946,"78.91,89.54"
2024-05-28_13-16-42.139408,"87.61,85.14"
2024-05-28_13-16-42.168140,"94.32,80.23"
2024-05-28_13-16-42.200882,"78.91,68.33"
2024-05-28_13-16-42.234798,"83.39,81.23"
2024-05-28_13-16-42.267397,"82.75,79.60"
2024-05-28_13-16-42.299340,"84.06,73.21"
2024-05-28_13-16-42.335301,"83.03,86.32"
2024-05-28_13-16-42.364721,"96.94,86.61"
2024-05-28_13-16-42.397410,"79.39,69.15"
2024-05-28_13-16-42.426220,"85.09,99.59"
2024-05-28_13-16-42.458974,"82.88,76.18"
2024-05-28_13-16-42.491764,"89.58,79.09"
2024-05-28_13-16-42.532936,"78.39,72.26"
2024-05-28_13-16-42.557260,"102.84,60.01"
2024-05-28_13-16-42.589910,"92.53,78.76"
2024-05-28_13-16-42.622626,"70.28,58.78"
2024-05-28_13-16-42.651611,"79.95,92.87"
2024-05-28_13-16-42.684340,"84.99,80.36"
2024-05-28_13-16-42.717056,"74.24,87.37"
2024-05-28_13-16-42.749782,"63.33,83.49"
2024-05-28_13-16-42.782532,"84.27,70.49"
2024-05-28_13-16-42.815459,"82.85,83.35"
2024-05-28_13-16-42.848186,"92.40,67.92"
2024-05-28_13-16-42.876899,"89.51,64.98"
2024-05-28_13-16-42.909516,"84.60,64.70"
2024-05-28_13-16-42.942301,"58.74,54.35"
2024-05-28_13-16-42.975249,"94.76,92.06"
2024-05-28_13-16-43.007828,"89.50,59.30"
2024-05-28_13-16-43.041257,"78.58,96.99"
2024-05-28_13-16-43.073339,"77.64,81.73"
2024-05-28_13-16-43.102055,"82.20,70.90"
2024-05-28_13-16-43.134796,"94.78,80.28"
2024-05-28_13-16-43.167567,"95.08,73.87"
2024-05-28_13-16-43.200324,"83.50,57.56"
2024-05-28_13-16-43.233094,"86.25,69.95"
2024-05-28_13-16-43.269540,"79.36,87.47"
2024-05-28_13-16-43.298518,"86.17,58.92"
2024-05-28_13-16-43.327305,"98.77,90.56"
2024-05-28_13-16-43.360086,"66.37,75.41"
2024-05-28_13-16-43.392880,"68.48,77.79"
2024-05-28_13-16-43.425742,"81.25,78.06"
2024-05-28_13-16-43.458445,"92.54,80.05"
2024-05-28_13-16-43.491106,"93.74,69.94"
2024-05-28_13-16-43.523845,"88.89,53.13"
2024-05-28_13-16-43.552583,"70.47,77.29"
2024-05-28_13-16-43.585383,"82.96,97.17"
2024-05-28_13-16-43.618163,"87.08,90.43"
2024-05-28_13-16-43.650899,"86.91,88.20"
2024-05-28_13-16-43.683790,"74.41,71.90"
2024-05-28_13-16-43.716456,"85.95,76.40"
2024-05-28_13-16-43.749101,"111.02,73.96"
2024-05-28_13-16-43.778030,"104.17,60.82"
2024-05-28_13-16-43.810650,"105.17,53.61"
2024-05-28_13-16-43.843490,"81.63,53.94"
2024-05-28_13-16-43.882295,"73.51,83.70"
2024-05-28_13-16-43.908996,"77.19,60.65"
2024-05-28_13-16-43.941656,"80.95,99.81"
2024-05-28_13-16-43.974400,"66.31,86.97"
2024-05-28_13-16-44.003245,"81.38,73.07"
2024-05-28_13-16-44.036176,"95.41,80.24"
2024-05-28_13-16-44.068805,"89.47,79.37"
2024-05-28_13-16-44.101474,"97.15,49.41"
2024-05-28_13-16-44.134393,"87.60,54.14"
2024-05-28_13-16-44.167274,"52.89,71.20"
2024-05-28_13-16-44.199770,"86.38,62.68"
2024-05-28_13-16-44.228467,"93.47,84.60"
2024-05-28_13-16-44.261210,"70.90,79.50"
2024-05-28_13-16-44.293946,"86.22,76.66"
2024-05-28_13-16-44.327021,"93.09,84.65"
2024-05-28_13-16-44.359534,"80.29,62.87"
2024-05-28_13-16-44.392198,"96.21,64.29"
2024-05-28_13-16-44.424907,"88.20,56.18"
2024-05-28_13-16-44.453742,"91.01,45.84"
2024-05-28_13-16-44.486605,"57.61,78.68"
2024-05-28_13-16-44.519672,"86.27,44.37"
2024-05-28_13-16-44.552034,"83.13,106.13"
2024-05-28_13-16-44.584798,"73.24,78.89"
2024-05-28_13-16-44.617579,"82.91,81.57"
2024-05-28_13-16-44.650215,"98.15,82.92"
2024-05-28_13-16-44.679107,"92.75,58.88"
2024-05-28_13-16-44.711779,"95.36,59.77"
2024-05-28_13-16-44.744532,"103.73,56.38"
2024-05-28_13-16-44.777310,"65.05,80.36"
2024-05-28_13-16-44.810055,"83.31,85.86"
2024-05-28_13-16-44.842862,"84.31,71.04"
2024-05-28_13-16-44.875501,"86.89,87.99"
2024-05-28_13-16-44.904263,"82.99,84.06"
2024-05-28_13-16-44.937121,"76.93,71.29"
2024-05-28_13-16-44.969881,"85.82,84.24"
2024-05-28_13-16-45.002585,"106.08,63.33"
2024-05-28_13-16-45.035379,"95.35,56.93"
2024-05-28_13-16-45.068134,"84.04,56.54"
2024-05-28_13-16-45.100910,"75.82,65.84"
2024-05-28_13-16-45.129581,"68.45,69.42"
2024-05-28_13-16-45.162330,"90.42,79.82"
2024-05-28_13-16-45.195136,"87.97,84.64"
2024-05-28_13-16-45.228036,"83.26,79.92"
2024-05-28_13-16-45.260651,"101.83,68.96"
2024-05-28_13-16-45.293414,"87.70,61.26"
2024-05-28_13-16-45.326064,"99.83,58.02"
2024-05-28_13-16-45.358740,"96.69,54.41"
2024-05-28_13-16-45.387744,"81.40,75.66"
2024-05-28_13-16-45.420478,"88.39,69.16"
2024-05-28_13-16-45.453179,"78.75,83.89"
2024-05-28_13-16-45.486036,"84.23,81.39"
2024-05-28_13-16-45.518835,"70.77,73.95"
2024-05-28_13-16-45.551696,"93.27,61.58"
2024-05-28_13-16-45.584047,"96.80,55.43"
2024-05-28_13-16-45.612879,"81.82,66.77"
2024-05-28_13-16-45.645678,"108.11,72.45"
2024-05-28_13-16-45.678460,"66.20,68.40"
2024-05-28_13-16-45.711237,"88.33,71.51"
2024-05-28_13-16-45.744069,"83.00,73.43"
2024-05-28_13-16-45.776669,"89.10,77.80"
2024-05-28_13-16-45.809538,"94.59,82.57"
2024-05-28_13-16-45.838191,"89.96,73.83"
2024-05-28_13-16-45.871022,"86.88,80.84"
2024-05-28_13-16-45.903707,"89.35,70.71"
2024-05-28_13-16-45.936441,"92.78,69.53"
2024-05-28_13-16-45.969268,"96.56,68.51"
2024-05-28_13-16-46.001995,"62.83,59.96"
2024-05-28_13-16-46.034610,"96.85,90.26"
2024-05-28_13-16-46.063541,"96.91,92.63"
2024-05-28_13-16-46.096225,"87.02,81.86"
2024-05-28_13-16-46.129037,"79.89,94.65"
2024-05-28_13-16-46.161749,"83.36,71.87"
2024-05-28_13-16-46.194525,"78.47,78.73"
2024-05-28_13-16-46.227186,"101.52,68.35"
2024-05-28_13-16-46.259931,"85.62,54.01"
2024-05-28_13-16-46.288725,"96.81,51.02"
2024-05-28_13-16-46.321485,"67.66,77.35"
2024-05-28_13-16-46.354344,"92.34,84.62"
2024-05-28_13-16-46.387140,"72.66,62.05"
2024-05-28_13-16-46.419840,"74.12,95.20"
2024-05-28_13-16-46.453086,"77.12,79.50"
2024-05-28_13-16-46.485267,"95.84,77.68"
2024-05-28_13-16-46.514090,"108.75,64.49"
2024-05-28_13-16-46.546749,"76.54,69.18"
2024-05-28_13-16-46.579546,"82.80,56.09"
2024-05-28_13-16-46.612359,"80.93,58.44"
2024-05-28_13-16-46.645048,"91.64,80.30"
2024-05-28_13-16-46.677876,"89.59,84.78"
2024-05-28_13-16-46.710447,"92.90,72.70"
2024-05-28_13-16-46.739250,"88.26,76.73"
2024-05-28_13-16-46.772067,"89.71,78.43"
2024-05-28_13-16-46.804769,"85.32,82.87"
2024-05-28_13-16-46.837557,"75.15,69.69"
2024-05-28_13-16-46.870329,"89.71,81.89"
2024-05-28_13-16-46.903026,"91.00,56.42"
2024-05-28_13-16-46.935736,"71.60,46.42"
2024-05-28_13-16-46.964535,"91.62,90.59"
2024-05-28_13-16-46.997302,"86.07,63.85"
2024-05-28_13-16-47.030077,"77.83,81.06"
2024-05-28_13-16-47.062839,"84.16,74.44"
2024-05-28_13-16-47.095642,"86.49,81.77"
2024-05-28_13-16-47.128319,"95.28,82.83"
2024-05-28_13-16-47.161021,"96.22,51.52"
2024-05-28_13-16-47.189886,"95.22,69.88"
2024-05-28_13-16-47.222609,"82.28,71.60"
2024-05-28_13-16-47.255359,"77.49,70.91"
2024-05-28_13-16-47.288615,"96.92,82.85"
2024-05-28_13-16-47.320928,"96.25,99.88"
2024-05-28_13-16-47.353751,"71.49,82.07"
2024-05-28_13-16-47.386309,"90.94,87.41"
2024-05-28_13-16-47.415673,"83.41,71.43"
2024-05-28_13-16-47.447887,"93.97,73.64"
2024-05-28_13-16-47.480650,"81.71,69.68"
2024-05-28_13-16-47.513447,"93.17,46.23"
2024-05-28_13-16-47.546233,"70.54,86.57"
2024-05-28_13-16-47.578875,"62.15,54.59"
2024-05-28_13-16-47.611685,"94.05,86.85"
2024-05-28_13-16-47.640420,"89.63,89.40"
2024-05-28_13-16-47.673134,"79.71,83.77"
2024-05-28_13-16-47.706069,"88.00,78.71"
2024-05-28_13-16-47.738743,"78.93,75.62"
2024-05-28_13-16-47.771479,"97.67,57.14"
2024-05-28_13-16-47.804179,"106.83,57.67"
2024-05-28_13-16-47.836866,"90.03,54.61"
2024-05-28_13-16-47.865681,"64.98,90.05"
2024-05-28_13-16-47.898447,"81.78,75.78"
2024-05-28_13-16-47.931192,"86.06,86.86"
2024-05-28_13-16-47.963997,"90.72,89.72"
2024-05-28_13-16-47.996849,"73.74,73.09"
2024-05-28_13-16-48.029449,"91.23,82.93"
2024-05-28_13-16-48.062140,"84.90,72.24"
2024-05-28_13-16-48.090980,"87.77,64.48"
2024-05-28_13-16-48.123711,"105.51,56.11"
2024-05-28_13-16-48.156451,"70.13,73.46"
2024-05-28_13-16-48.189281,"74.92,82.74"
2024-05-28_13-16-48.222193,"87.92,99.02"
2024-05-28_13-16-48.254826,"87.93,94.52"
2024-05-28_13-16-48.287521,"94.86,83.46"
2024-05-28_13-16-48.316258,"83.69,70.33"
2024-05-28_13-16-48.349145,"80.64,79.60"
2024-05-28_13-16-48.381773,"87.41,92.40"
2024-05-28_13-16-48.414546,"94.90,65.34"
2024-05-28_13-16-48.447534,"99.10,57.11"
2024-05-28_13-16-48.480334,"54.45,79.89"
2024-05-28_13-16-48.512975,"82.13,64.65"
2024-05-28_13-16-48.541511,"80.57,92.34"
2024-05-28_13-16-48.574250,"68.79,97.40"
2024-05-28_13-16-48.607098,"80.48,79.01"
2024-05-28_13-16-48.639851,"84.10,73.40"
2024-05-28_13-16-48.672633,"95.56,57.59"
2024-05-28_13-16-48.705387,"98.49,85.31"
2024-05-28_13-16-48.737995,"95.51,56.22"
2024-05-28_13-16-48.766807,"78.59,59.51"
2024-05-28_13-16-48.799567,"85.22,77.05"
2024-05-28_13-16-48.832362,"74.88,66.11"
2024-05-28_13-16-48.865173,"99.68,88.45"
2024-05-28_13-16-48.897844,"69.79,74.33"
2024-05-28_13-16-48.930659,"79.70,78.72"
2024-05-28_13-16-48.963301,"90.38,77.26"
2024-05-28_13-16-48.992095,"92.03,62.37"
2024-05-28_13-16-49.024821,"92.89,64.56"
2024-05-28_13-16-49.057644,"93.58,52.31"
2024-05-28_13-16-49.090969,"74.54,85.16"
2024-05-28_13-16-49.123192,"80.16,48.74"
2024-05-28_13-16-49.155966,"85.57,95.13"
2024-05-28_13-16-49.188565,"91.18,86.18"
2024-05-28_13-16-49.221232,"72.56,73.23"
2024-05-28_13-16-49.250136,"83.80,75.86"
2024-05-28_13-16-49.282868,"90.28,78.38"
2024-05-28_13-16-49.315627,"104.56,63.03"
2024-05-28_13-16-49.348375,"96.65,52.63"
2024-05-28_13-16-49.381182,"87.79,64.89"
2024-05-28_13-16-49.413834,"84.85,83.65"
2024-05-28_13-16-49.446536,"91.06,87.87"
2024-05-28_13-16-49.475365,"85.10,70.28"
2024-05-28_13-16-49.508133,"82.68,78.47"
2024-05-28_13-16-49.540930,"77.36,72.37"
2024-05-28_13-16-49.573706,"80.57,83.11"
2024-05-28_13-16-49.606463,"93.20,70.46"
2024-05-28_13-16-49.639123,"84.92,68.31"
2024-05-28_13-16-49.671817,"96.34,51.59"
2024-05-28_13-16-49.700613,"79.90,53.42"
2024-05-28_13-16-49.733396,"86.31,79.75"
2024-05-28_13-16-49.766173,"90.08,82.46"
2024-05-28_13-16-49.798931,"85.73,67.81"
2024-05-28_13-16-49.831710,"80.03,79.63"
2024-05-28_13-16-49.864384,"87.39,83.57"
2024-05-28_13-16-49.897143,"75.05,70.08"
2024-05-28_13-16-49.925896,"89.78,80.95"
2024-05-28_13-16-49.958670,"93.75,71.84"
2024-05-28_13-16-49.991520,"93.17,46.37"
2024-05-28_13-16-50.024235,"67.69,85.51"
2024-05-28_13-16-50.057008,"93.33,74.27"
2024-05-28_13-16-50.089688,"94.37,72.39"
2024-05-28_13-16-50.122447,"96.12,78.49"
2024-05-28_13-16-50.151200,"83.08,82.94"
2024-05-28_13-16-50.183959,"80.28,80.18"
2024-05-28_13-16-50.216719,"83.79,67.85"
2024-05-28_13-16-50.249511,"83.49,80.98"
2024-05-28_13-16-50.282302,"94.42,56.07"
2024-05-28_13-16-50.314991,"73.21,82.22"
2024-05-28_13-16-50.347699,"77.31,88.89"
2024-05-28_13-16-50.376470,"96.65,81.96"
2024-05-28_13-16-50.409291,"74.26,84.69"
2024-05-28_13-16-50.442076,"87.22,85.87"
2024-05-28_13-16-50.474810,"77.61,71.55"
2024-05-28_13-16-50.507585,"84.90,79.83"
2024-05-28_13-16-50.540287,"84.71,71.35"
2024-05-28_13-16-50.572973,"92.45,78.04"
2024-05-28_13-16-50.601756,"102.99,57.70"
2024-05-28_13-16-50.634525,"57.22,59.65"
2024-05-28_13-16-50.667368,"96.32,86.36"
2024-05-28_13-16-50.700054,"91.08,70.09"
2024-05-28_13-16-50.732811,"81.69,84.93"
2024-05-28_13-16-50.765561,"82.47,77.21"
2024-05-28_13-16-50.798245,"84.33,68.11"
2024-05-28_13-16-50.827013,"82.23,80.24"
2024-05-28_13-16-50.859765,"85.93,72.64"
2024-05-28_13-16-50.892624,"97.92,70.49"
2024-05-28_13-16-50.925350,"78.50,64.60"
2024-05-28_13-16-50.958212,"78.55,78.12"
2024-05-28_13-16-50.990898,"97.46,84.16"
2024-05-28_13-16-51.023526,"78.45,94.41"
2024-05-28_13-16-51.052332,"58.68,79.60"
2024-05-28_13-16-51.085082,"86.11,78.26"
2024-05-28_13-16-51.117845,"79.13,71.41"
2024-05-28_13-16-51.150632,"81.84,78.23"
2024-05-28_13-16-51.183371,"103.47,56.70"
2024-05-28_13-16-51.216123,"80.89,57.19"
2024-05-28_13-16-51.248902,"77.97,75.14"
2024-05-28_13-16-51.277624,"88.13,83.10"
2024-05-28_13-16-51.310668,"90.61,81.58"
2024-05-28_13-16-51.343335,"92.06,84.03"
2024-05-28_13-16-51.375958,"87.63,72.69"
2024-05-28_13-16-51.408646,"86.41,80.03"
2024-05-28_13-16-51.441420,"84.71,71.90"
2024-05-28_13-16-51.474114,"86.30,82.62"
2024-05-28_13-16-51.502833,"101.88,52.31"
2024-05-28_13-16-51.535677,"74.97,60.41"
2024-05-28_13-16-51.568409,"78.12,79.71"
2024-05-28_13-16-51.601186,"96.96,93.19"
2024-05-28_13-16-51.633936,"75.20,68.36"
2024-05-28_13-16-51.666680,"76.46,78.09"
2024-05-28_13-16-51.699397,"82.15,72.26"
2024-05-28_13-16-51.728210,"77.07,76.51"
2024-05-28_13-16-51.760958,"95.22,84.70"
2024-05-28_13-16-51.793722,"77.12,70.45"
2024-05-28_13-16-51.826470,"95.41,52.04"
2024-05-28_13-16-51.859282,"70.50,71.47"
2024-05-28_13-16-51.891969,"92.59,80.92"
2024-05-28_13-16-51.924706,"101.67,86.14"
2024-05-28_13-16-51.953422,"83.13,77.54"
2024-05-28_13-16-51.986258,"75.21,78.07"
2024-05-28_13-16-52.019064,"97.25,80.73"
2024-05-28_13-16-52.051790,"108.65,80.65"
2024-05-28_13-16-52.084555,"98.91,68.18"
2024-05-28_13-16-52.117294,"97.26,52.74"
2024-05-28_13-16-52.149977,"87.90,54.18"
2024-05-28_13-16-52.178966,"82.52,92.81"
2024-05-28_13-16-52.211732,"90.36,49.50"
2024-05-28_13-16-52.244378,"94.19,92.02"
2024-05-28_13-16-52.278066,"81.65,74.84"
2024-05-28_13-16-52.310050,"95.79,58.81"
2024-05-28_13-16-52.342575,"101.08,69.03"
2024-05-28_13-16-52.375418,"77.25,70.81"
2024-05-28_13-16-52.407993,"99.05,69.10"
2024-05-28_13-16-52.436815,"96.37,54.50"
2024-05-28_13-16-52.469513,"63.11,75.04"
2024-05-28_13-16-52.502286,"96.37,91.33"
2024-05-28_13-16-52.535057,"94.42,70.17"
2024-05-28_13-16-52.567848,"90.49,81.97"
2024-05-28_13-16-52.600620,"95.85,74.54"
2024-05-28_13-16-52.633232,"87.97,82.93"
2024-05-28_13-16-52.662102,"87.97,80.63"
2024-05-28_13-16-52.694863,"79.52,70.25"
2024-05-28_13-16-52.727566,"100.75,57.39"
2024-05-28_13-16-52.760302,"85.16,72.03"
2024-05-28_13-16-52.793158,"78.79,84.01"
2024-05-28_13-16-52.825811,"87.32,85.91"
2024-05-28_13-16-52.858518,"83.75,74.70"
2024-05-28_13-16-52.887372,"79.35,76.75"
2024-05-28_13-16-52.920134,"94.69,86.12"
2024-05-28_13-16-52.952837,"73.47,71.54"
2024-05-28_13-16-52.985719,"88.96,81.81"
2024-05-28_13-16-53.018397,"89.38,72.38"
2024-05-28_13-16-53.051089,"99.05,46.42"
2024-05-28_13-16-53.083810,"65.65,96.07"
2024-05-28_13-16-53.112683,"84.49,78.36"
2024-05-28_13-16-53.145395,"99.75,92.66"
2024-05-28_13-16-53.178172,"95.45,85.05"
2024-05-28_13-16-53.210905,"77.90,84.26"
2024-05-28_13-16-53.243653,"89.68,78.46"
2024-05-28_13-16-53.276394,"87.54,70.58"
2024-05-28_13-16-53.309327,"83.06,64.72"
2024-05-28_13-16-53.338384,"103.34,67.71"
2024-05-28_13-16-53.370750,"82.59,58.03"
2024-05-28_13-16-53.403417,"69.29,75.31"
2024-05-28_13-16-53.436181,"71.29,67.22"
2024-05-28_13-16-53.468920,"81.04,78.01"
2024-05-28_13-16-53.501718,"96.12,85.19"
2024-05-28_13-16-53.534429,"84.23,73.60"
2024-05-28_13-16-53.563139,"70.77,79.57"
2024-05-28_13-16-53.595959,"83.84,71.22"
2024-05-28_13-16-53.628704,"80.85,78.03"
2024-05-28_13-16-53.661436,"97.69,57.86"
2024-05-28_13-16-53.694230,"60.31,79.04"
2024-05-28_13-16-53.726947,"90.18,87.78"
2024-05-28_13-16-53.759646,"93.44,80.76"
2024-05-28_13-16-53.788431,"90.32,84.48"
2024-05-28_13-16-53.821202,"80.15,76.92"
2024-05-28_13-16-53.853955,"89.83,69.01"
2024-05-28_13-16-53.886732,"80.98,80.16"
2024-05-28_13-16-53.919488,"87.49,71.92"
2024-05-28_13-16-53.952248,"89.85,69.65"
2024-05-28_13-16-53.984942,"83.66,54.64"
2024-05-28_13-16-54.013737,"77.16,79.25"
2024-05-28_13-16-54.046483,"99.53,83.89"
2024-05-28_13-16-54.079299,"91.27,92.16"
2024-05-28_13-16-54.112053,"87.06,77.50"
2024-05-28_13-16-54.144820,"77.37,81.68"
2024-05-28_13-16-54.177528,"85.81,71.83"
2024-05-28_13-16-54.210226,"82.27,77.20"
2024-05-28_13-16-54.238981,"93.09,71.66"
2024-05-28_13-16-54.271759,"89.50,56.16"
2024-05-28_13-16-54.304535,"67.83,95.55"
2024-05-28_13-16-54.337272,"89.61,91.26"
2024-05-28_13-16-54.370044,"84.50,77.03"
2024-05-28_13-16-54.402804,"93.99,81.53"
2024-05-28_13-16-54.435702,"76.03,71.00"
2024-05-28_13-16-54.464300,"80.48,80.66"
2024-05-28_13-16-54.497083,"85.72,76.08"
2024-05-28_13-16-54.529827,"91.98,53.46"
2024-05-28_13-16-54.562569,"85.45,52.66"
2024-05-28_13-16-54.595395,"85.47,53.54"
2024-05-28_13-16-54.628137,"71.13,72.69"
2024-05-28_13-16-54.660819,"100.59,87.47"
2024-05-28_13-16-54.689539,"85.58,69.77"
2024-05-28_13-16-54.722344,"76.87,77.23"
2024-05-28_13-16-54.755111,"80.58,70.97"
2024-05-28_13-16-54.787875,"76.47,80.71"
2024-05-28_13-16-54.820609,"94.77,84.29"
2024-05-28_13-16-54.853407,"77.91,69.88"
2024-05-28_13-16-54.886071,"94.31,51.54"
2024-05-28_13-16-54.918762,"71.70,89.65"
2024-05-28_13-16-54.947579,"95.72,79.75"
2024-05-28_13-16-54.980402,"82.24,86.86"
2024-05-28_13-16-55.013200,"85.46,76.77"
2024-05-28_13-16-55.045938,"77.04,77.42"
2024-05-28_13-16-55.078682,"79.54,71.74"
2024-05-28_13-16-55.111397,"87.27,81.79"
2024-05-28_13-16-55.144146,"90.67,77.88"
2024-05-28_13-16-55.173025,"89.91,71.32"
2024-05-28_13-16-55.205693,"84.84,68.62"
2024-05-28_13-16-55.238423,"87.74,80.25"
2024-05-28_13-16-55.271170,"98.68,84.75"
2024-05-28_13-16-55.303962,"74.31,83.22"
2024-05-28_13-16-55.336710,"80.88,74.24"
2024-05-28_13-16-55.369378,"89.89,78.21"
2024-05-28_13-16-55.398162,"89.06,84.22"
2024-05-28_13-16-55.430912,"77.02,69.55"
2024-05-28_13-16-55.463673,"87.66,68.39"
2024-05-28_13-16-55.496456,"93.78,61.81"
2024-05-28_13-16-55.529198,"66.05,94.70"
2024-05-28_13-16-55.561957,"94.09,91.45"
2024-05-28_13-16-55.594667,"84.88,66.46"
2024-05-28_13-16-55.623444,"79.55,80.21"
2024-05-28_13-16-55.656192,"74.00,72.58"
2024-05-28_13-16-55.688963,"90.26,82.18"
2024-05-28_13-16-55.721715,"88.07,80.51"
2024-05-28_13-16-55.754481,"84.82,67.89"
2024-05-28_13-16-55.787237,"77.51,68.46"
2024-05-28_13-16-55.819925,"85.22,72.74"
2024-05-28_13-16-55.848691,"78.23,85.18"
2024-05-28_13-16-55.881478,"94.47,80.36"
2024-05-28_13-16-55.914231,"73.69,67.39"
2024-05-28_13-16-55.946991,"90.69,76.64"
2024-05-28_13-16-55.979768,"87.41,82.90"
2024-05-28_13-16-56.012508,"75.33,70.74"
2024-05-28_13-16-56.045226,"88.54,80.56"
2024-05-28_13-16-56.073987,"82.97,71.69"
2024-05-28_13-16-56.106843,"91.50,45.96"
2024-05-28_13-16-56.139535,"66.48,95.38"
2024-05-28_13-16-56.172328,"92.60,75.71"
2024-05-28_13-16-56.205061,"93.82,81.30"
2024-05-28_13-16-56.237790,"80.13,77.50"
2024-05-28_13-16-56.270502,"86.03,81.40"
2024-05-28_13-16-56.299263,"79.99,78.33"
2024-05-28_13-16-56.332039,"83.71,68.31"
2024-05-28_13-16-56.364827,"82.62,67.24"
2024-05-28_13-16-56.397584,"99.72,56.18"
2024-05-28_13-16-56.430357,"80.91,57.40"
2024-05-28_13-16-56.463063,"70.35,81.02"
2024-05-28_13-16-56.495807,"88.69,75.88"
2024-05-28_13-16-56.524563,"72.10,72.68"
2024-05-28_13-16-56.557325,"97.22,84.20"
2024-05-28_13-16-56.590131,"79.18,71.48"
2024-05-28_13-16-56.622844,"84.56,79.45"
2024-05-28_13-16-56.655643,"83.11,71.26"
2024-05-28_13-16-56.688373,"82.07,78.03"
2024-05-28_13-16-56.721086,"101.03,57.38"
2024-05-28_13-16-56.749824,"64.92,72.95"
2024-05-28_13-16-56.782622,"78.40,88.20"
2024-05-28_13-16-56.815384,"92.65,91.62"
2024-05-28_13-16-56.848115,"85.16,86.51"
2024-05-28_13-16-56.880873,"78.49,77.35"
2024-05-28_13-16-56.913665,"87.92,69.01"
2024-05-28_13-16-56.946333,"81.16,78.85"
2024-05-28_13-16-56.975120,"84.55,71.58"
2024-05-28_13-16-57.007886,"95.44,82.45"
2024-05-28_13-16-57.040662,"96.13,82.76"
2024-05-28_13-16-57.073454,"59.34,61.71"
2024-05-28_13-16-57.106194,"99.37,97.27"
2024-05-28_13-16-57.138920,"73.14,70.25"
2024-05-28_13-16-57.171632,"77.51,75.52"
2024-05-28_13-16-57.200417,"83.95,77.27"
2024-05-28_13-16-57.233163,"83.33,71.62"
2024-05-28_13-16-57.266038,"83.50,77.22"
2024-05-28_13-16-57.298733,"99.33,59.43"
2024-05-28_13-16-57.331549,"95.65,55.26"
2024-05-28_13-16-57.364280,"77.19,58.66"
2024-05-28_13-16-57.397184,"89.84,86.00"
2024-05-28_13-16-57.425830,"82.50,76.11"
2024-05-28_13-16-57.458548,"97.19,85.17"
2024-05-28_13-16-57.491278,"66.94,72.62"
2024-05-28_13-16-57.524031,"79.82,80.57"
2024-05-28_13-16-57.556743,"80.48,71.36"
2024-05-28_13-16-57.589567,"87.79,82.49"
2024-05-28_13-16-57.622294,"98.77,53.02"
2024-05-28_13-16-57.651205,"79.18,60.72"
2024-05-28_13-16-57.683855,"65.31,78.33"
2024-05-28_13-16-57.716606,"94.27,80.10"
2024-05-28_13-16-57.749268,"86.38,70.03"
2024-05-28_13-16-57.782004,"86.98,78.14"
2024-05-28_13-16-57.814777,"79.06,72.57"
2024-05-28_13-16-57.847507,"77.62,75.50"
2024-05-28_13-16-57.880194,"94.22,84.61"
2024-05-28_13-16-57.908970,"76.64,69.65"
2024-05-28_13-16-57.941763,"99.88,51.86"
2024-05-28_13-16-57.974633,"70.92,88.76"
2024-05-28_13-16-58.007326,"79.02,84.68"
2024-05-28_13-16-58.040137,"98.23,95.55"
2024-05-28_13-16-58.072836,"89.68,81.20"
2024-05-28_13-16-58.105516,"91.11,83.57"
2024-05-28_13-16-58.134272,"83.34,72.25"
2024-05-28_13-16-58.167118,"88.92,81.13"
2024-05-28_13-16-58.199824,"93.48,80.23"
2024-05-28_13-16-58.232632,"94.65,51.94"
2024-05-28_13-16-58.265357,"93.37,52.74"
2024-05-28_13-16-58.298080,"68.74,75.52"
2024-05-28_13-16-58.330841,"91.41,76.76"
2024-05-28_13-16-58.359595,"91.69,73.68"
2024-05-28_13-16-58.392381,"96.38,76.67"
2024-05-28_13-16-58.425120,"97.35,78.32"
2024-05-28_13-16-58.457867,"84.89,84.11"
2024-05-28_13-16-58.490642,"75.20,69.88"
2024-05-28_13-16-58.523352,"91.37,69.05"
2024-05-28_13-16-58.556054,"96.55,57.35"
2024-05-28_13-16-58.584843,"75.52,71.92"
2024-05-28_13-16-58.617614,"89.87,91.58"
2024-05-28_13-16-58.650367,"84.65,63.34"
2024-05-28_13-16-58.683157,"78.52,81.01"
2024-05-28_13-16-58.715916,"72.62,73.09"
2024-05-28_13-16-58.748646,"88.67,81.80"
2024-05-28_13-16-58.781390,"91.55,84.75"
2024-05-28_13-16-58.810318,"86.45,49.81"
2024-05-28_13-16-58.842978,"86.22,63.48"
2024-05-28_13-16-58.875652,"83.92,77.47"
2024-05-28_13-16-58.908417,"74.34,87.95"
2024-05-28_13-16-58.941197,"95.75,81.80"
2024-05-28_13-16-58.973933,"87.82,67.39"
2024-05-28_13-16-59.006643,"82.68,75.80"
2024-05-28_13-16-59.035433,"89.47,83.32"
2024-05-28_13-16-59.068199,"79.47,70.12"
2024-05-28_13-16-59.100980,"107.74,65.26"
2024-05-28_13-16-59.133712,"89.64,56.33"
2024-05-28_13-16-59.166526,"89.36,66.38"
2024-05-28_13-16-59.199205,"71.97,95.22"
2024-05-28_13-16-59.231927,"89.27,83.65"
2024-05-28_13-16-59.260715,"83.94,71.25"
2024-05-28_13-16-59.293440,"74.88,74.83"
2024-05-28_13-16-59.326346,"88.40,81.91"
2024-05-28_13-16-59.359012,"86.09,80.50"
2024-05-28_13-16-59.392733,"88.98,50.81"
2024-05-28_13-16-59.424490,"81.39,68.29"
2024-05-28_13-16-59.457187,"94.61,62.50"
2024-05-28_13-16-59.485962,"69.09,83.31"
2024-05-28_13-16-59.518714,"86.15,87.88"
2024-05-28_13-16-59.551477,"94.57,62.27"
2024-05-28_13-16-59.584273,"88.96,81.89"
2024-05-28_13-16-59.617030,"90.36,84.93"
2024-05-28_13-16-59.649845,"76.13,71.03"
2024-05-28_13-16-59.682492,"88.71,80.18"
2024-05-28_13-16-59.711240,"83.39,70.80"
2024-05-28_13-16-59.743980,"86.37,63.77"
2024-05-28_13-16-59.776780,"84.43,59.98"
2024-05-28_13-16-59.809567,"77.86,78.79"
2024-05-28_13-16-59.842320,"93.79,81.37"
2024-05-28_13-16-59.875070,"71.58,69.99"
2024-05-28_13-16-59.907778,"90.57,81.55"
2024-05-28_13-16-59.936608,"83.74,79.14"
2024-05-28_13-16-59.969381,"82.14,77.50"
2024-05-28_13-17-00.002085,"86.69,62.06"
2024-05-28_13-17-00.034881,"84.92,72.34"
2024-05-28_13-17-00.067611,"91.56,54.40"
2024-05-28_13-17-00.100374,"68.27,92.38"
2024-05-28_13-17-00.133088,"90.96,76.39"
2024-05-28_13-17-00.165771,"91.74,84.91"
2024-05-28_13-17-00.194554,"94.63,86.69"
2024-05-28_13-17-00.227320,"76.57,71.43"
2024-05-28_13-17-00.260098,"81.48,78.88"
2024-05-28_13-17-00.292883,"85.10,71.79"
2024-05-28_13-17-00.325710,"83.23,64.24"
2024-05-28_13-17-00.358347,"109.33,61.35"
2024-05-28_13-17-00.391073,"62.28,65.34"
2024-05-28_13-17-00.419884,"83.92,91.69"
2024-05-28_13-17-00.452680,"91.47,90.89"
2024-05-28_13-17-00.485363,"86.13,88.67"
2024-05-28_13-17-00.518362,"79.31,77.14"
2024-05-28_13-17-00.550995,"87.13,69.90"
2024-05-28_13-17-00.583672,"79.63,80.85"
2024-05-28_13-17-00.616346,"83.64,71.59"
2024-05-28_13-17-00.645144,"96.75,82.72"
2024-05-28_13-17-00.677890,"98.67,53.33"
2024-05-28_13-17-00.710688,"59.54,55.60"
2024-05-28_13-17-00.743431,"100.38,88.09"
2024-05-28_13-17-00.776194,"95.30,75.13"
2024-05-28_13-17-00.808942,"83.09,77.81"
2024-05-28_13-17-00.841657,"81.28,78.23"
2024-05-28_13-17-00.870401,"78.05,71.81"
2024-05-28_13-17-00.903176,"83.21,77.01"
2024-05-28_13-17-00.935926,"96.39,84.98"
2024-05-28_13-17-00.968732,"93.74,54.59"
2024-05-28_13-17-01.001545,"69.52,78.45"
2024-05-28_13-17-01.034207,"86.26,76.98"
2024-05-28_13-17-01.066917,"83.72,70.41"
2024-05-28_13-17-01.095722,"83.54,80.94"
2024-05-28_13-17-01.128479,"72.33,74.15"
2024-05-28_13-17-01.161236,"80.54,78.85"
2024-05-28_13-17-01.193974,"77.64,71.03"
2024-05-28_13-17-01.226763,"87.32,82.28"
2024-05-28_13-17-01.259599,"99.65,69.14"
2024-05-28_13-17-01.292183,"93.75,55.64"
2024-05-28_13-17-01.321014,"62.36,76.97"
2024-05-28_13-17-01.353725,"94.81,88.19"
2024-05-28_13-17-01.386619,"94.56,88.12"
2024-05-28_13-17-01.419380,"100.87,84.57"
2024-05-28_13-17-01.452140,"68.75,73.80"
2024-05-28_13-17-01.484953,"90.66,65.80"
2024-05-28_13-17-01.517471,"100.28,79.57"
2024-05-28_13-17-01.546424,"78.74,54.66"
2024-05-28_13-17-01.579125,"98.56,53.76"
2024-05-28_13-17-01.611825,"72.25,75.97"
2024-05-28_13-17-01.644656,"81.75,83.22"
2024-05-28_13-17-01.677376,"93.52,99.14"
2024-05-28_13-17-01.710074,"83.07,79.24"
2024-05-28_13-17-01.742788,"75.89,78.24"
2024-05-28_13-17-01.771505,"86.66,70.97"
2024-05-28_13-17-01.804293,"75.92,81.76"
2024-05-28_13-17-01.837085,"90.15,81.95"
2024-05-28_13-17-01.869840,"93.46,51.88"
2024-05-28_13-17-01.902657,"87.95,82.08"
2024-05-28_13-17-01.935348,"73.29,82.87"
2024-05-28_13-17-01.968074,"88.79,82.96"
2024-05-28_13-17-01.996796,"71.05,72.14"
2024-05-28_13-17-02.029571,"77.41,76.24"
2024-05-28_13-17-02.062353,"87.17,76.19"
2024-05-28_13-17-02.095144,"84.47,83.55"
2024-05-28_13-17-02.127842,"78.20,71.11"
2024-05-28_13-17-02.160652,"90.84,67.82"
2024-05-28_13-17-02.193339,"103.93,56.35"
2024-05-28_13-17-02.222151,"76.86,53.14"
2024-05-28_13-17-02.254824,"93.79,91.62"
2024-05-28_13-17-02.287599,"73.37,65.61"
2024-05-28_13-17-02.320402,"79.97,81.31"
2024-05-28_13-17-02.353203,"83.03,72.62"
2024-05-28_13-17-02.385920,"83.09,82.07"
2024-05-28_13-17-02.418597,"88.80,80.77"
2024-05-28_13-17-02.447362,"85.83,67.75"
2024-05-28_13-17-02.480146,"78.61,68.00"
2024-05-28_13-17-02.512898,"91.02,57.02"
2024-05-28_13-17-02.545656,"78.33,80.72"
2024-05-28_13-17-02.578485,"95.04,82.57"
2024-05-28_13-17-02.611221,"95.62,90.91"
2024-05-28_13-17-02.643890,"87.99,77.84"
2024-05-28_13-17-02.672946,"84.83,83.24"
2024-05-28_13-17-02.705410,"71.51,70.57"
2024-05-28_13-17-02.738189,"89.94,80.80"
2024-05-28_13-17-02.770928,"84.37,71.36"
2024-05-28_13-17-02.803732,"97.12,45.98"
2024-05-28_13-17-02.836478,"69.51,100.01"
2024-05-28_13-17-02.869206,"82.28,83.34"
2024-05-28_13-17-02.897917,"84.72,80.42"
2024-05-28_13-17-02.930732,"73.05,67.31"
2024-05-28_13-17-02.963460,"79.48,81.57"
2024-05-28_13-17-02.996289,"85.81,78.73"
2024-05-28_13-17-03.028968,"82.60,66.99"
2024-05-28_13-17-03.061838,"82.05,81.05"
2024-05-28_13-17-03.094472,"82.08,71.29"
2024-05-28_13-17-03.127159,"93.93,70.53"
2024-05-28_13-17-03.155953,"68.75,78.12"
2024-05-28_13-17-03.188723,"91.91,74.12"
2024-05-28_13-17-03.221471,"99.08,85.68"
2024-05-28_13-17-03.254250,"89.30,89.67"
2024-05-28_13-17-03.287023,"73.10,71.94"
2024-05-28_13-17-03.319841,"90.13,79.30"
2024-05-28_13-17-03.352818,"69.45,74.73"
2024-05-28_13-17-03.382997,"95.12,54.98"
2024-05-28_13-17-03.414166,"90.55,88.71"
2024-05-28_13-17-03.446877,"63.29,69.75"
2024-05-28_13-17-03.479698,"73.08,78.26"
2024-05-28_13-17-03.512482,"102.95,85.70"
2024-05-28_13-17-03.545072,"65.49,61.66"
2024-05-28_13-17-03.577839,"61.40,83.08"
2024-05-28_13-17-03.606594,"82.96,69.97"
2024-05-28_13-17-03.639351,"80.53,72.93"
2024-05-28_13-17-03.672200,"91.04,71.95"
2024-05-28_13-17-03.704929,"89.97,64.20"
2024-05-28_13-17-03.737658,"88.37,86.73"
2024-05-28_13-17-03.770315,"63.60,74.64"
2024-05-28_13-17-03.803154,"97.07,90.49"
2024-05-28_13-17-03.831910,"94.41,75.87"
2024-05-28_13-17-03.864601,"83.89,78.06"
2024-05-28_13-17-03.897399,"80.27,79.39"
2024-05-28_13-17-03.930113,"79.42,71.34"
2024-05-28_13-17-03.962877,"82.21,77.38"
2024-05-28_13-17-03.995637,"93.42,84.45"
2024-05-28_13-17-04.028298,"80.69,54.28"
2024-05-28_13-17-04.057121,"83.59,56.16"
2024-05-28_13-17-04.090019,"83.68,88.72"
2024-05-28_13-17-04.122698,"85.94,75.59"
2024-05-28_13-17-04.155436,"85.78,95.54"
2024-05-28_13-17-04.188195,"65.47,76.25"
2024-05-28_13-17-04.220866,"80.29,78.00"
2024-05-28_13-17-04.253611,"86.25,71.36"
2024-05-28_13-17-04.282384,"87.52,82.19"
2024-05-28_13-17-04.315128,"88.98,68.73"
2024-05-28_13-17-04.347944,"92.58,57.66"
2024-05-28_13-17-04.380662,"71.58,70.62"
2024-05-28_13-17-04.413468,"92.76,95.75"
2024-05-28_13-17-04.446178,"83.88,68.39"
2024-05-28_13-17-04.478848,"82.55,80.14"
2024-05-28_13-17-04.507683,"73.47,72.85"
2024-05-28_13-17-04.540549,"90.20,81.78"
2024-05-28_13-17-04.573251,"101.64,67.66"
2024-05-28_13-17-04.606014,"77.36,70.80"
2024-05-28_13-17-04.638973,"88.34,68.36"
2024-05-28_13-17-04.671448,"85.70,71.87"
2024-05-28_13-17-04.704134,"78.98,60.51"
2024-05-28_13-17-04.732917,"85.21,86.96"
2024-05-28_13-17-04.765701,"87.24,68.96"
2024-05-28_13-17-04.798463,"82.54,79.54"
2024-05-28_13-17-04.831215,"79.03,72.33"
2024-05-28_13-17-04.864045,"82.83,81.72"
2024-05-28_13-17-04.896899,"87.70,73.37"
2024-05-28_13-17-04.929626,"95.26,55.58"
2024-05-28_13-17-04.958291,"87.95,64.09"
2024-05-28_13-17-04.991019,"89.68,84.02"
2024-05-28_13-17-05.023907,"91.61,83.62"
2024-05-28_13-17-05.056688,"79.76,89.96"
2024-05-28_13-17-05.089547,"71.51,95.16"
2024-05-28_13-17-05.122081,"49.92,93.50"
2024-05-28_13-17-05.154761,"80.47,82.81"
2024-05-28_13-17-05.183529,"77.14,71.34"
2024-05-28_13-17-05.216841,"87.68,79.86"
2024-05-28_13-17-05.250176,"93.39,88.55"
2024-05-28_13-17-05.281869,"74.32,84.74"
2024-05-28_13-17-05.314728,"82.60,69.24"
2024-05-28_13-17-05.347516,"91.55,76.88"
2024-05-28_13-17-05.380109,"91.16,90.57"
2024-05-28_13-17-05.408803,"76.06,88.34"
2024-05-28_13-17-05.441606,"78.41,86.07"
2024-05-28_13-17-05.474354,"81.04,80.37"
2024-05-28_13-17-05.507137,"82.66,67.58"
2024-05-28_13-17-05.541421,"84.75,66.26"
2024-05-28_13-17-05.572693,"86.59,81.26"
2024-05-28_13-17-05.605311,"80.10,80.58"
2024-05-28_13-17-05.634035,"65.93,71.56"
2024-05-28_13-17-05.666845,"80.89,71.95"
2024-05-28_13-17-05.699630,"91.26,73.36"
2024-05-28_13-17-05.732442,"83.83,86.75"
2024-05-28_13-17-05.765205,"78.99,72.40"
2024-05-28_13-17-05.797922,"83.39,79.40"
2024-05-28_13-17-05.830596,"82.54,71.53"
2024-05-28_13-17-05.859377,"81.64,77.55"
2024-05-28_13-17-05.892126,"107.51,57.36"
2024-05-28_13-17-05.924866,"57.03,62.56"
2024-05-28_13-17-05.957937,"93.83,89.37"
2024-05-28_13-17-05.990523,"91.61,64.85"
2024-05-28_13-17-06.023322,"64.66,90.59"
2024-05-28_13-17-06.056001,"80.35,85.44"
2024-05-28_13-17-06.084704,"89.98,70.24"
2024-05-28_13-17-06.117463,"83.50,79.16"
2024-05-28_13-17-06.150193,"97.66,83.09"
2024-05-28_13-17-06.183106,"97.73,64.91"
2024-05-28_13-17-06.215878,"84.05,85.89"
2024-05-28_13-17-06.248565,"78.68,63.29"
2024-05-28_13-17-06.281190,"97.16,98.22"
2024-05-28_13-17-06.309898,"88.40,90.38"
2024-05-28_13-17-06.342706,"73.37,75.14"
2024-05-28_13-17-06.375449,"83.20,78.01"
2024-05-28_13-17-06.408301,"88.82,62.49"
2024-05-28_13-17-06.441064,"92.34,67.64"
2024-05-28_13-17-06.473821,"92.99,75.34"
2024-05-28_13-17-06.506491,"85.71,58.34"
2024-05-28_13-17-06.539168,"78.40,53.56"
2024-05-28_13-17-06.567976,"90.50,85.59"
2024-05-28_13-17-06.600797,"94.42,86.57"
2024-05-28_13-17-06.633551,"90.07,81.99"
2024-05-28_13-17-06.666238,"92.36,74.05"
2024-05-28_13-17-06.699035,"80.52,78.21"
2024-05-28_13-17-06.731727,"87.49,71.24"
2024-05-28_13-17-06.764423,"87.52,81.88"
2024-05-28_13-17-06.793201,"88.18,68.36"
2024-05-28_13-17-06.825993,"96.17,53.27"
2024-05-28_13-17-06.858818,"66.29,97.79"
2024-05-28_13-17-06.891736,"89.22,95.67"
2024-05-28_13-17-06.924446,"89.01,90.16"
2024-05-28_13-17-06.957070,"99.98,83.90"
2024-05-28_13-17-06.989742,"74.30,72.71"
2024-05-28_13-17-07.018583,"84.35,77.66"
2024-05-28_13-17-07.051319,"100.48,72.43"
2024-05-28_13-17-07.085635,"76.30,54.66"
2024-05-28_13-17-07.116927,"103.93,52.79"
2024-05-28_13-17-07.149804,"64.20,69.52"
2024-05-28_13-17-07.182285,"85.06,82.68"
2024-05-28_13-17-07.214982,"81.32,73.49"
2024-05-28_13-17-07.243861,"95.68,71.03"
2024-05-28_13-17-07.276539,"89.68,83.36"
2024-05-28_13-17-07.309292,"78.56,73.43"
2024-05-28_13-17-07.342130,"83.42,81.25"
2024-05-28_13-17-07.374929,"97.08,77.27"
2024-05-28_13-17-07.407564,"94.21,70.89"
2024-05-28_13-17-07.440286,"92.85,81.96"
2024-05-28_13-17-07.469156,"84.63,76.63"
2024-05-28_13-17-07.501873,"88.22,54.12"
2024-05-28_13-17-07.534781,"91.72,90.30"
2024-05-28_13-17-07.567589,"69.76,92.78"
2024-05-28_13-17-07.600150,"77.54,84.90"
2024-05-28_13-17-07.633205,"87.82,92.12"
2024-05-28_13-17-07.665516,"74.92,70.41"
2024-05-28_13-17-07.694390,"102.75,78.70"
2024-05-28_13-17-07.727130,"107.60,56.95"
2024-05-28_13-17-07.759985,"85.51,65.93"
2024-05-28_13-17-07.792693,"91.17,74.92"
2024-05-28_13-17-07.825486,"90.46,84.58"
2024-05-28_13-17-07.858307,"102.61,60.57"
2024-05-28_13-17-07.891083,"65.21,105.79"
2024-05-28_13-17-07.920955,"53.00,93.89"
2024-05-28_13-17-07.952707,"93.27,70.22"
2024-05-28_13-17-07.985322,"101.11,66.84"
2024-05-28_13-17-08.018229,"93.47,69.44"
2024-05-28_13-17-08.050814,"96.27,63.00"
2024-05-28_13-17-08.083655,"92.80,85.90"
2024-05-28_13-17-08.116456,"79.08,77.13"
2024-05-28_13-17-08.144950,"88.85,53.25"
2024-05-28_13-17-08.177857,"71.20,85.95"
2024-05-28_13-17-08.210533,"76.87,96.20"
2024-05-28_13-17-08.243249,"80.25,72.54"
2024-05-28_13-17-08.276031,"81.16,80.52"
2024-05-28_13-17-08.308748,"100.98,47.43"
2024-05-28_13-17-08.341540,"99.03,64.53"
2024-05-28_13-17-08.370357,"99.32,80.92"
2024-05-28_13-17-08.403012,"60.92,75.86"
2024-05-28_13-17-08.435782,"82.64,91.91"
2024-05-28_13-17-08.468531,"97.03,76.68"
2024-05-28_13-17-08.501382,"92.00,86.70"
2024-05-28_13-17-08.534143,"79.82,78.95"
2024-05-28_13-17-08.566710,"80.58,69.63"
2024-05-28_13-17-08.595477,"84.10,79.66"
2024-05-28_13-17-08.628273,"86.50,72.54"
2024-05-28_13-17-08.661005,"93.37,69.76"
2024-05-28_13-17-08.693789,"85.70,75.91"
2024-05-28_13-17-08.726522,"59.47,79.00"
2024-05-28_13-17-08.759317,"101.78,94.26"
2024-05-28_13-17-08.792046,"81.17,88.40"
2024-05-28_13-17-08.820761,"78.40,74.53"
2024-05-28_13-17-08.853513,"84.37,78.00"
2024-05-28_13-17-08.886263,"87.64,70.78"
2024-05-28_13-17-08.919130,"81.03,77.29"
2024-05-28_13-17-08.951828,"95.79,85.29"
2024-05-28_13-17-08.984680,"88.72,53.74"
2024-05-28_13-17-09.017309,"77.55,72.20"
2024-05-28_13-17-09.046196,"77.38,72.01"
2024-05-28_13-17-09.078902,"82.69,65.49"
2024-05-28_13-17-09.111685,"74.59,87.32"
2024-05-28_13-17-09.144372,"71.59,82.82"
2024-05-28_13-17-09.177240,"82.04,85.15"
2024-05-28_13-17-09.210076,"87.69,86.41"
2024-05-28_13-17-09.242598,"94.49,60.70"
2024-05-28_13-17-09.271351,"93.72,86.00"
2024-05-28_13-17-09.304110,"88.55,55.53"
2024-05-28_13-17-09.336878,"70.85,56.29"
2024-05-28_13-17-09.369680,"90.89,93.99"
2024-05-28_13-17-09.402398,"91.16,88.71"
2024-05-28_13-17-09.435159,"95.18,81.98"
2024-05-28_13-17-09.467831,"76.60,73.45"
2024-05-28_13-17-09.500530,"83.50,76.43"
2024-05-28_13-17-09.529346,"94.63,82.77"
2024-05-28_13-17-09.562146,"77.67,70.17"
2024-05-28_13-17-09.594862,"103.67,51.24"
2024-05-28_13-17-09.627672,"77.99,70.93"
2024-05-28_13-17-09.660423,"81.55,88.40"
2024-05-28_13-17-09.693148,"88.46,90.08"
2024-05-28_13-17-09.725848,"77.18,66.48"
2024-05-28_13-17-09.754693,"73.10,81.24"
2024-05-28_13-17-09.787445,"82.44,71.82"
2024-05-28_13-17-09.820202,"83.74,81.80"
2024-05-28_13-17-09.853016,"92.24,80.26"
2024-05-28_13-17-09.885760,"84.53,68.95"
2024-05-28_13-17-09.918422,"98.74,51.29"
2024-05-28_13-17-09.951134,"67.28,99.19"
2024-05-28_13-17-09.979883,"95.45,75.32"
2024-05-28_13-17-10.012682,"93.30,83.46"
2024-05-28_13-17-10.045416,"83.57,77.45"
2024-05-28_13-17-10.078299,"87.32,78.43"
2024-05-28_13-17-10.110962,"81.29,84.26"
2024-05-28_13-17-10.143691,"77.81,70.08"
2024-05-28_13-17-10.176399,"90.46,68.36"
2024-05-28_13-17-10.205258,"84.87,56.41"
2024-05-28_13-17-10.238151,"72.19,63.63"
2024-05-28_13-17-10.270769,"94.89,68.76"
2024-05-28_13-17-10.303584,"93.95,77.17"
2024-05-28_13-17-10.336313,"86.52,83.96"
2024-05-28_13-17-10.368984,"79.81,76.20"
2024-05-28_13-17-10.401677,"93.49,81.97"
2024-05-28_13-17-10.430494,"87.23,79.46"
2024-05-28_13-17-10.463227,"85.43,68.97"
2024-05-28_13-17-10.495995,"81.23,68.69"
2024-05-28_13-17-10.528780,"104.98,56.08"
2024-05-28_13-17-10.561533,"63.95,71.76"
2024-05-28_13-17-10.594259,"96.80,85.66"
2024-05-28_13-17-10.626984,"82.47,65.44"
2024-05-28_13-17-10.655730,"83.21,80.87"
2024-05-28_13-17-10.688505,"83.26,83.92"
2024-05-28_13-17-10.721288,"75.15,70.70"
2024-05-28_13-17-10.754061,"87.56,81.37"
2024-05-28_13-17-10.786848,"84.10,72.16"
2024-05-28_13-17-10.819584,"95.60,64.17"
2024-05-28_13-17-10.852313,"82.11,56.94"
2024-05-28_13-17-10.881068,"84.17,78.10"
2024-05-28_13-17-10.913864,"89.29,84.29"
2024-05-28_13-17-10.946591,"90.75,74.26"
2024-05-28_13-17-10.979310,"88.59,85.14"
2024-05-28_13-17-11.012173,"84.74,78.81"
2024-05-28_13-17-11.044859,"80.54,68.79"
2024-05-28_13-17-11.077564,"81.19,61.68"
2024-05-28_13-17-11.106320,"84.40,57.15"
2024-05-28_13-17-11.139101,"94.48,54.28"
2024-05-28_13-17-11.171838,"67.68,95.87"
2024-05-28_13-17-11.204590,"81.83,80.29"
2024-05-28_13-17-11.237378,"102.82,87.98"
2024-05-28_13-17-11.270212,"89.90,88.95"
2024-05-28_13-17-11.302844,"74.67,72.74"
2024-05-28_13-17-11.331599,"79.94,78.50"
2024-05-28_13-17-11.364416,"82.73,71.70"
2024-05-28_13-17-11.397160,"75.67,69.77"
2024-05-28_13-17-11.429904,"109.73,56.66"
2024-05-28_13-17-11.462660,"78.03,56.93"
2024-05-28_13-17-11.495448,"70.91,73.41"
2024-05-28_13-17-11.528189,"98.72,80.62"
2024-05-28_13-17-11.556857,"99.29,89.68"
2024-05-28_13-17-11.589659,"74.95,78.22"
2024-05-28_13-17-11.622438,"79.82,69.81"
2024-05-28_13-17-11.655236,"75.20,79.70"
2024-05-28_13-17-11.687967,"86.03,71.87"
2024-05-28_13-17-11.720729,"91.62,67.88"
2024-05-28_13-17-11.753411,"101.03,52.91"
2024-05-28_13-17-11.782157,"77.76,54.38"
2024-05-28_13-17-11.814910,"77.87,77.55"
2024-05-28_13-17-11.847711,"105.69,96.45"
2024-05-28_13-17-11.880500,"89.01,69.17"
2024-05-28_13-17-11.913248,"76.10,78.57"
2024-05-28_13-17-11.946037,"84.48,72.23"
2024-05-28_13-17-11.978718,"79.55,76.32"
2024-05-28_13-17-12.007434,"93.55,84.40"
2024-05-28_13-17-12.040308,"75.98,70.05"
2024-05-28_13-17-12.073001,"100.35,52.06"
2024-05-28_13-17-12.105766,"68.54,68.98"
2024-05-28_13-17-12.138544,"95.29,80.96"
2024-05-28_13-17-12.171452,"80.75,72.93"
2024-05-28_13-17-12.204026,"86.97,78.49"
2024-05-28_13-17-12.236709,"84.63,72.38"
2024-05-28_13-17-12.265558,"89.57,78.63"
2024-05-28_13-17-12.298315,"88.20,71.47"
2024-05-28_13-17-12.331074,"89.74,81.58"
2024-05-28_13-17-12.363909,"88.26,52.09"
2024-05-28_13-17-12.396619,"84.48,55.44"
2024-05-28_13-17-12.429276,"90.36,81.24"
2024-05-28_13-17-12.461956,"97.88,87.87"
2024-05-28_13-17-12.490753,"74.41,69.08"
2024-05-28_13-17-12.523630,"79.82,73.99"
2024-05-28_13-17-12.556349,"90.97,69.28"
2024-05-28_13-17-12.589063,"88.08,84.08"
2024-05-28_13-17-12.621856,"77.20,69.62"
2024-05-28_13-17-12.654539,"88.46,67.98"
2024-05-28_13-17-12.687275,"98.69,56.08"
2024-05-28_13-17-12.716087,"71.43,47.04"
2024-05-28_13-17-12.748798,"93.34,89.92"
2024-05-28_13-17-12.781580,"82.22,66.02"
2024-05-28_13-17-12.814338,"88.84,84.22"
2024-05-28_13-17-12.847118,"70.98,73.58"
2024-05-28_13-17-12.879827,"86.18,81.90"
2024-05-28_13-17-12.912546,"87.82,80.29"
2024-05-28_13-17-12.941325,"83.80,68.08"
2024-05-28_13-17-12.974085,"91.65,68.26"
2024-05-28_13-17-13.006922,"87.46,72.54"
2024-05-28_13-17-13.039624,"86.92,80.06"
2024-05-28_13-17-13.072408,"91.69,80.95"
2024-05-28_13-17-13.105295,"83.57,80.16"
2024-05-28_13-17-13.137864,"82.46,78.29"
2024-05-28_13-17-13.166749,"67.52,89.56"
2024-05-28_13-17-13.199427,"96.13,62.57"
2024-05-28_13-17-13.232191,"90.72,70.57"
2024-05-28_13-17-13.265360,"86.15,61.54"
2024-05-28_13-17-13.297961,"71.03,84.19"
2024-05-28_13-17-13.330406,"75.13,68.12"
2024-05-28_13-17-13.363137,"87.42,88.83"
2024-05-28_13-17-13.392073,"86.26,93.71"
2024-05-28_13-17-13.427293,"80.42,102.98"
2024-05-28_13-17-13.457560,"50.33,77.64"
2024-05-28_13-17-13.490533,"69.28,82.71"
2024-05-28_13-17-13.526091,"114.83,62.65"
2024-05-28_13-17-13.555943,"93.58,57.01"
2024-05-28_13-17-13.590721,"103.50,72.77"
2024-05-28_13-17-13.617841,"79.14,90.49"
2024-05-28_13-17-13.650444,"92.18,71.66"
2024-05-28_13-17-13.682738,"86.60,87.84"
2024-05-28_13-17-13.724298,"69.23,78.98"
2024-05-28_13-17-13.748473,"75.24,89.42"
2024-05-28_13-17-13.781048,"50.53,96.23"
2024-05-28_13-17-13.813785,"82.99,88.22"
2024-05-28_13-17-13.842549,"87.98,71.37"
2024-05-28_13-17-13.875451,"88.16,70.59"
2024-05-28_13-17-13.908107,"104.40,62.51"
2024-05-28_13-17-13.940894,"73.29,59.83"
2024-05-28_13-17-13.973582,"79.23,82.70"
2024-05-28_13-17-14.006303,"87.36,74.24"
2024-05-28_13-17-14.038956,"93.37,76.85"
2024-05-28_13-17-14.067828,"86.07,80.67"
2024-05-28_13-17-14.100815,"81.61,71.49"
2024-05-28_13-17-14.133620,"80.15,85.34"
2024-05-28_13-17-14.166070,"87.56,57.80"
2024-05-28_13-17-14.198859,"87.66,82.78"
2024-05-28_13-17-14.231516,"94.40,52.04"
2024-05-28_13-17-14.264227,"65.32,60.82"
2024-05-28_13-17-14.293015,"94.53,89.28"
2024-05-28_13-17-14.326077,"92.93,76.42"
2024-05-28_13-17-14.358653,"68.91,69.91"
2024-05-28_13-17-14.391520,"83.90,85.69"
2024-05-28_13-17-14.424711,"77.71,71.01"
2024-05-28_13-17-14.456906,"85.64,71.62"
2024-05-28_13-17-14.489526,"101.98,56.60"
2024-05-28_13-17-14.518336,"83.12,54.54"
2024-05-28_13-17-14.551280,"85.39,52.67"
2024-05-28_13-17-14.584040,"72.61,83.91"
2024-05-28_13-17-14.617458,"81.20,71.33"
2024-05-28_13-17-14.649444,"80.58,85.61"
2024-05-28_13-17-14.682188,"89.38,77.76"
2024-05-28_13-17-14.714820,"78.75,79.66"
2024-05-28_13-17-14.743628,"88.52,71.35"
2024-05-28_13-17-14.776540,"91.36,85.11"
2024-05-28_13-17-14.809149,"97.45,71.68"
2024-05-28_13-17-14.841921,"99.59,53.84"
2024-05-28_13-17-14.874708,"72.38,76.52"
2024-05-28_13-17-14.907437,"86.37,75.46"
2024-05-28_13-17-14.940203,"77.94,73.56"
2024-05-28_13-17-14.968946,"87.97,93.12"
2024-05-28_13-17-15.001650,"76.29,78.08"
2024-05-28_13-17-15.034479,"93.23,73.93"
2024-05-28_13-17-15.067258,"99.08,82.60"
2024-05-28_13-17-15.100089,"95.77,66.64"
2024-05-28_13-17-15.135206,"91.51,89.53"
2024-05-28_13-17-15.165438,"85.00,81.07"
2024-05-28_13-17-15.194199,"88.42,75.46"
2024-05-28_13-17-15.226981,"78.36,67.63"
2024-05-28_13-17-15.260276,"84.23,96.89"
2024-05-28_13-17-15.292512,"62.03,83.79"
2024-05-28_13-17-15.325329,"64.22,94.10"
2024-05-28_13-17-15.358058,"85.80,87.82"
2024-05-28_13-17-15.391029,"83.64,68.05"
2024-05-28_13-17-15.419599,"94.77,72.23"
2024-05-28_13-17-15.452246,"82.04,68.85"
2024-05-28_13-17-15.485124,"78.83,76.16"
2024-05-28_13-17-15.517726,"82.55,87.86"
2024-05-28_13-17-15.550530,"88.17,82.85"
2024-05-28_13-17-15.583357,"85.28,68.35"
2024-05-28_13-17-15.615977,"88.62,79.86"
2024-05-28_13-17-15.648626,"86.08,85.31"
2024-05-28_13-17-15.677508,"72.51,69.12"
2024-05-28_13-17-15.710275,"96.83,73.79"
2024-05-28_13-17-15.743061,"81.55,67.12"
2024-05-28_13-17-15.775848,"60.12,65.87"
2024-05-28_13-17-15.808562,"81.34,87.79"
2024-05-28_13-17-15.841231,"91.39,77.67"
2024-05-28_13-17-15.873953,"93.34,85.40"
2024-05-28_13-17-15.902746,"83.62,76.29"
2024-05-28_13-17-15.935655,"86.33,82.40"
2024-05-28_13-17-15.968362,"102.03,81.84"
2024-05-28_13-17-16.001126,"100.74,55.35"
2024-05-28_13-17-16.033790,"83.75,69.30"
2024-05-28_13-17-16.066519,"97.18,56.56"
2024-05-28_13-17-16.099199,"76.50,85.53"
2024-05-28_13-17-16.128020,"75.48,90.38"
2024-05-28_13-17-16.160793,"94.98,84.78"
2024-05-28_13-17-16.193584,"74.94,81.19"
2024-05-28_13-17-16.226757,"87.25,90.62"
2024-05-28_13-17-16.259152,"73.18,74.19"
2024-05-28_13-17-16.291808,"82.72,85.60"
2024-05-28_13-17-16.324512,"86.06,73.35"
2024-05-28_13-17-16.353435,"80.91,78.64"
2024-05-28_13-17-16.386195,"105.63,81.64"
2024-05-28_13-17-16.429559,"65.44,76.14"
2024-05-28_13-17-16.451624,"90.77,55.86"
2024-05-28_13-17-16.484387,"73.61,74.09"
2024-05-28_13-17-16.517113,"84.46,88.14"
2024-05-28_13-17-16.549797,"77.92,76.28"
2024-05-28_13-17-16.578584,"87.03,69.67"
2024-05-28_13-17-16.611323,"80.79,79.66"
2024-05-28_13-17-16.644216,"86.12,71.68"
2024-05-28_13-17-16.676926,"96.47,69.45"
2024-05-28_13-17-16.709635,"93.85,83.07"
2024-05-28_13-17-16.742360,"59.20,56.62"
2024-05-28_13-17-16.775054,"101.54,90.33"
2024-05-28_13-17-16.803862,"95.19,84.97"
2024-05-28_13-17-16.836623,"94.11,78.17"
2024-05-28_13-17-16.869381,"79.08,81.33"
2024-05-28_13-17-16.902160,"81.94,71.26"
2024-05-28_13-17-16.934909,"80.09,77.40"
2024-05-28_13-17-16.967643,"94.75,85.04"
2024-05-28_13-17-17.000367,"83.29,55.19"
2024-05-28_13-17-17.029130,"87.08,79.36"
2024-05-28_13-17-17.061945,"67.40,89.29"
2024-05-28_13-17-17.094681,"91.66,90.43"
2024-05-28_13-17-17.127464,"89.71,85.95"
2024-05-28_13-17-17.160247,"79.03,74.06"
2024-05-28_13-17-17.192939,"79.42,80.25"
2024-05-28_13-17-17.225629,"76.09,72.19"
2024-05-28_13-17-17.254454,"86.95,81.82"
2024-05-28_13-17-17.287166,"88.97,69.46"
2024-05-28_13-17-17.319992,"102.02,54.88"
2024-05-28_13-17-17.352791,"64.67,68.85"
2024-05-28_13-17-17.385574,"91.06,96.79"
2024-05-28_13-17-17.418246,"83.47,69.52"
2024-05-28_13-17-17.450958,"91.85,81.39"
2024-05-28_13-17-17.479683,"76.68,73.65"
2024-05-28_13-17-17.512522,"72.86,76.21"
2024-05-28_13-17-17.545334,"93.44,82.86"
2024-05-28_13-17-17.578073,"76.67,54.25"
2024-05-28_13-17-17.610856,"96.09,66.43"
2024-05-28_13-17-17.643595,"76.69,71.36"
2024-05-28_13-17-17.676233,"82.56,69.08"
2024-05-28_13-17-17.705001,"93.41,87.63"
2024-05-28_13-17-17.737742,"86.88,67.34"
2024-05-28_13-17-17.770532,"85.23,80.80"
2024-05-28_13-17-17.803341,"80.13,72.76"
2024-05-28_13-17-17.836129,"81.20,80.89"
2024-05-28_13-17-17.868784,"92.62,67.14"
2024-05-28_13-17-17.901514,"86.28,69.26"
2024-05-28_13-17-17.930255,"94.51,51.46"
2024-05-28_13-17-17.963043,"72.82,94.50"
2024-05-28_13-17-17.995911,"81.09,86.91"
2024-05-28_13-17-18.028658,"85.78,85.75"
2024-05-28_13-17-18.061318,"86.85,68.39"
2024-05-28_13-17-18.094062,"83.18,78.62"
2024-05-28_13-17-18.126785,"88.36,83.89"
2024-05-28_13-17-18.155613,"73.65,69.52"
2024-05-28_13-17-18.188354,"92.41,78.33"
2024-05-28_13-17-18.221155,"105.15,57.39"
2024-05-28_13-17-18.253825,"92.46,46.41"
2024-05-28_13-17-18.286622,"65.58,77.44"
2024-05-28_13-17-18.319417,"92.14,75.66"
2024-05-28_13-17-18.352097,"103.46,73.77"
2024-05-28_13-17-18.380847,"85.06,76.99"
2024-05-28_13-17-18.413597,"88.48,82.32"
2024-05-28_13-17-18.446365,"82.61,79.21"
2024-05-28_13-17-18.479111,"88.45,68.03"
2024-05-28_13-17-18.511879,"83.16,82.26"
2024-05-28_13-17-18.544670,"90.95,55.97"
2024-05-28_13-17-18.577353,"65.67,58.95"
2024-05-28_13-17-18.610060,"96.13,86.35"
2024-05-28_13-17-18.638905,"84.43,82.91"
2024-05-28_13-17-18.671646,"78.34,81.33"
2024-05-28_13-17-18.704403,"91.90,84.18"
2024-05-28_13-17-18.737273,"71.32,70.31"
2024-05-28_13-17-18.770016,"86.75,79.85"
2024-05-28_13-17-18.802642,"85.93,72.44"
2024-05-28_13-17-18.835328,"90.89,63.28"
2024-05-28_13-17-18.864221,"96.17,55.74"
2024-05-28_13-17-18.896926,"53.15,80.28"
2024-05-28_13-17-18.929658,"95.41,89.53"
2024-05-28_13-17-18.962452,"81.45,65.38"
2024-05-28_13-17-18.995220,"85.91,83.95"
2024-05-28_13-17-19.027914,"82.76,77.27"
2024-05-28_13-17-19.060638,"84.80,68.14"
2024-05-28_13-17-19.089405,"82.08,80.09"
2024-05-28_13-17-19.122168,"84.33,71.27"
2024-05-28_13-17-19.154988,"102.39,53.18"
2024-05-28_13-17-19.187714,"73.68,52.86"
2024-05-28_13-17-19.220472,"75.57,77.04"
2024-05-28_13-17-19.253215,"84.96,80.13"
2024-05-28_13-17-19.285939,"83.50,77.26"
2024-05-28_13-17-19.314759,"68.23,73.45"
2024-05-28_13-17-19.347522,"87.75,79.11"
2024-05-28_13-17-19.380252,"81.22,71.33"
2024-05-28_13-17-19.413036,"81.27,77.66"
2024-05-28_13-17-19.445783,"102.64,55.52"
2024-05-28_13-17-19.478490,"81.86,55.70"
2024-05-28_13-17-19.511213,"64.71,93.38"
2024-05-28_13-17-19.540030,"100.72,83.20"
2024-05-28_13-17-19.572744,"99.79,84.86"
2024-05-28_13-17-19.605503,"74.05,77.76"
2024-05-28_13-17-19.638292,"81.34,70.96"
2024-05-28_13-17-19.671077,"75.75,78.66"
2024-05-28_13-17-19.703788,"84.75,71.35"
2024-05-28_13-17-19.736515,"87.74,82.39"
2024-05-28_13-17-19.765248,"96.17,52.11"
2024-05-28_13-17-19.798025,"65.44,78.05"
2024-05-28_13-17-19.830812,"91.11,92.64"
2024-05-28_13-17-19.863594,"95.82,84.40"
2024-05-28_13-17-19.896315,"68.26,77.72"
2024-05-28_13-17-19.929094,"81.12,78.28"
2024-05-28_13-17-19.961803,"78.74,71.86"
2024-05-28_13-17-19.990538,"80.44,76.50"
2024-05-28_13-17-20.023318,"94.60,84.38"
2024-05-28_13-17-20.056081,"86.54,71.23"
2024-05-28_13-17-20.089098,"95.34,51.54"
2024-05-28_13-17-20.121731,"67.76,75.88"
2024-05-28_13-17-20.154369,"96.31,81.14"
2024-05-28_13-17-20.187060,"92.37,72.11"
2024-05-28_13-17-20.215797,"77.99,76.71"
2024-05-28_13-17-20.248605,"62.28,96.02"
2024-05-28_13-17-20.281382,"92.10,78.48"
2024-05-28_13-17-20.314142,"77.18,57.71"
2024-05-28_13-17-20.346906,"79.13,79.74"
2024-05-28_13-17-20.379667,"88.49,67.08"
2024-05-28_13-17-20.412380,"80.04,76.75"
2024-05-28_13-17-20.441181,"82.40,74.65"
2024-05-28_13-17-20.474068,"88.99,76.56"
2024-05-28_13-17-20.506717,"69.24,100.81"
2024-05-28_13-17-20.539414,"66.92,76.61"
2024-05-28_13-17-20.572175,"65.37,94.52"
2024-05-28_13-17-20.604931,"79.23,88.32"
2024-05-28_13-17-20.637668,"77.92,61.25"
2024-05-28_13-17-20.666404,"92.82,71.35"
2024-05-28_13-17-20.699152,"86.30,78.66"
2024-05-28_13-17-20.731908,"84.95,74.14"
2024-05-28_13-17-20.764697,"85.01,86.39"
2024-05-28_13-17-20.797445,"85.65,82.68"
2024-05-28_13-17-20.830225,"91.83,84.78"
2024-05-28_13-17-20.862920,"76.29,81.37"
2024-05-28_13-17-20.891735,"93.73,84.77"
2024-05-28_13-17-20.924415,"78.39,67.68"
2024-05-28_13-17-20.957209,"89.69,54.36"
2024-05-28_13-17-20.989967,"93.61,62.47"
2024-05-28_13-17-21.022742,"75.23,66.88"
2024-05-28_13-17-21.055494,"90.41,82.93"
2024-05-28_13-17-21.088220,"82.69,79.48"
2024-05-28_13-17-21.120910,"91.73,79.15"
2024-05-28_13-17-21.149746,"86.34,82.17"
2024-05-28_13-17-21.182504,"68.78,102.24"
2024-05-28_13-17-21.215229,"86.60,54.58"
2024-05-28_13-17-21.248016,"89.90,67.15"
2024-05-28_13-17-21.280765,"94.24,75.83"
2024-05-28_13-17-21.313508,"75.85,66.61"
2024-05-28_13-17-21.346193,"77.53,83.33"
2024-05-28_13-17-21.375014,"93.20,71.05"
2024-05-28_13-17-21.407796,"89.87,88.04"
2024-05-28_13-17-21.440546,"87.36,83.68"
2024-05-28_13-17-21.473311,"88.79,91.06"
2024-05-28_13-17-21.506067,"72.39,85.40"
2024-05-28_13-17-21.538785,"84.82,78.70"
2024-05-28_13-17-21.571495,"85.14,69.55"
2024-05-28_13-17-21.600273,"102.55,55.98"
2024-05-28_13-17-21.633056,"83.41,54.91"
2024-05-28_13-17-21.665857,"76.89,75.30"
2024-05-28_13-17-21.698570,"86.16,81.97"
2024-05-28_13-17-21.731354,"78.18,76.79"
2024-05-28_13-17-21.764059,"83.97,86.57"
2024-05-28_13-17-21.796770,"75.87,71.53"
2024-05-28_13-17-21.825522,"82.30,78.82"
2024-05-28_13-17-21.858335,"84.28,72.12"
2024-05-28_13-17-21.891103,"81.15,77.94"
2024-05-28_13-17-21.923944,"107.58,56.22"
2024-05-28_13-17-21.956627,"71.01,72.88"
2024-05-28_13-17-21.989353,"75.60,71.35"
2024-05-28_13-17-22.022086,"99.59,78.93"
2024-05-28_13-17-22.050826,"82.54,74.55"
2024-05-28_13-17-22.083613,"88.53,77.05"
2024-05-28_13-17-22.116372,"83.78,69.29"
2024-05-28_13-17-22.149217,"79.24,79.10"
2024-05-28_13-17-22.181929,"85.75,71.67"
2024-05-28_13-17-22.214657,"86.76,82.32"
2024-05-28_13-17-22.247320,"95.00,52.28"
2024-05-28_13-17-22.276142,"63.80,80.08"
2024-05-28_13-17-22.308889,"76.72,83.40"
2024-05-28_13-17-22.341661,"105.40,85.99"
2024-05-28_13-17-22.374435,"81.31,79.28"
2024-05-28_13-17-22.407216,"78.81,79.41"
2024-05-28_13-17-22.439933,"78.29,71.05"
2024-05-28_13-17-22.472639,"82.20,76.50"
2024-05-28_13-17-22.501470,"94.43,84.06"
2024-05-28_13-17-22.534179,"84.21,53.69"
2024-05-28_13-17-22.566918,"91.38,77.84"
2024-05-28_13-17-22.599688,"67.76,88.51"
2024-05-28_13-17-22.632476,"92.56,89.28"
2024-05-28_13-17-22.665207,"67.89,71.61"
2024-05-28_13-17-22.697902,"79.33,74.73"
2024-05-28_13-17-22.726691,"78.88,77.42"
2024-05-28_13-17-22.759447,"84.39,71.21"
2024-05-28_13-17-22.792230,"87.03,81.73"
2024-05-28_13-17-22.824989,"89.99,82.36"
2024-05-28_13-17-22.857769,"95.54,52.27"
2024-05-28_13-17-22.890497,"78.71,75.85"
2024-05-28_13-17-22.923190,"75.94,90.95"
2024-05-28_13-17-22.951984,"85.06,77.94"
2024-05-28_13-17-22.984815,"78.37,82.50"
2024-05-28_13-17-23.017551,"95.27,74.62"
2024-05-28_13-17-23.050253,"88.61,79.65"
2024-05-28_13-17-23.083047,"76.91,83.09"
2024-05-28_13-17-23.115805,"74.88,70.20"
2024-05-28_13-17-23.148484,"87.48,68.57"
2024-05-28_13-17-23.177239,"90.36,66.93"
2024-05-28_13-17-23.210043,"63.89,84.28"
2024-05-28_13-17-23.242816,"93.21,89.33"
2024-05-28_13-17-23.275509,"94.22,87.21"
2024-05-28_13-17-23.308335,"82.55,80.92"
2024-05-28_13-17-23.341049,"77.00,72.70"
2024-05-28_13-17-23.373766,"89.32,81.19"
2024-05-28_13-17-23.402570,"88.86,81.19"
2024-05-28_13-17-23.435266,"90.74,53.36"
2024-05-28_13-17-23.468066,"87.25,61.00"
2024-05-28_13-17-23.500821,"80.65,68.51"
2024-05-28_13-17-23.533566,"79.15,79.58"
2024-05-28_13-17-23.566349,"93.24,79.91"
2024-05-28_13-17-23.599057,"87.38,69.62"
2024-05-28_13-17-23.627842,"80.76,77.72"
2024-05-28_13-17-23.660575,"86.80,83.28"
2024-05-28_13-17-23.693344,"72.42,70.23"
2024-05-28_13-17-23.726094,"92.29,80.68"
2024-05-28_13-17-23.758881,"82.77,71.59"
2024-05-28_13-17-23.791656,"91.57,46.53"
2024-05-28_13-17-23.824331,"73.22,97.96"
2024-05-28_13-17-23.853079,"93.12,75.69"
2024-05-28_13-17-23.885851,"92.90,86.88"
2024-05-28_13-17-23.918627,"92.38,79.55"
2024-05-28_13-17-23.951370,"83.00,82.24"
2024-05-28_13-17-23.984177,"88.33,79.44"
2024-05-28_13-17-24.016955,"87.28,72.23"
2024-05-28_13-17-24.049643,"87.45,61.29"
2024-05-28_13-17-24.082359,"103.82,56.21"
2024-05-28_13-17-24.111130,"83.07,55.84"
2024-05-28_13-17-24.143914,"74.54,88.16"
2024-05-28_13-17-24.176693,"89.11,72.87"
2024-05-28_13-17-24.209440,"83.99,73.57"
2024-05-28_13-17-24.242192,"86.24,85.40"
2024-05-28_13-17-24.274938,"78.48,70.97"
2024-05-28_13-17-24.307640,"85.58,79.58"
2024-05-28_13-17-24.336424,"83.61,71.87"
2024-05-28_13-17-24.369204,"81.00,77.71"
2024-05-28_13-17-24.402012,"100.31,55.56"
2024-05-28_13-17-24.434722,"57.36,70.43"
2024-05-28_13-17-24.467478,"93.26,89.02"
2024-05-28_13-17-24.500221,"101.59,81.22"
2024-05-28_13-17-24.532892,"86.40,86.56"
2024-05-28_13-17-24.561695,"78.38,76.81"
2024-05-28_13-17-24.594464,"76.84,69.37"
2024-05-28_13-17-24.627217,"82.10,79.73"
2024-05-28_13-17-24.659995,"86.11,71.31"
2024-05-28_13-17-24.692763,"86.76,69.84"
2024-05-28_13-17-24.725493,"100.43,52.77"
2024-05-28_13-17-24.758202,"57.92,57.52"
2024-05-28_13-17-24.786963,"92.71,90.03"
2024-05-28_13-17-24.819769,"106.91,71.98"
2024-05-28_13-17-24.852530,"69.50,76.43"
2024-05-28_13-17-24.885267,"81.80,77.76"
2024-05-28_13-17-24.918040,"85.58,72.04"
2024-05-28_13-17-24.950781,"80.75,76.61"
2024-05-28_13-17-24.983478,"94.90,84.26"
2024-05-28_13-17-25.012257,"80.78,71.55"
2024-05-28_13-17-25.045000,"84.44,76.12"
2024-05-28_13-17-25.077791,"82.72,87.75"
2024-05-28_13-17-25.110539,"95.47,90.48"
2024-05-28_13-17-25.143331,"81.24,68.76"
2024-05-28_13-17-25.176062,"80.93,72.42"
2024-05-28_13-17-25.208741,"79.39,78.07"
2024-05-28_13-17-25.237501,"73.14,71.58"
2024-05-28_13-17-25.270267,"87.20,80.77"
2024-05-28_13-17-25.303031,"89.09,83.05"
2024-05-28_13-17-25.335828,"84.91,52.45"
2024-05-28_13-17-25.368639,"79.65,77.63"
2024-05-28_13-17-25.401311,"88.26,89.96"
2024-05-28_13-17-25.434024,"94.81,65.35"
2024-05-28_13-17-25.462800,"98.89,83.14"
2024-05-28_13-17-25.495611,"83.19,74.03"
2024-05-28_13-17-25.528359,"81.36,77.56"
2024-05-28_13-17-25.561096,"89.92,83.54"
2024-05-28_13-17-25.593921,"74.57,70.10"
2024-05-28_13-17-25.626600,"87.81,67.93"
2024-05-28_13-17-25.659318,"97.66,60.32"
2024-05-28_13-17-25.688120,"66.47,63.74"
2024-05-28_13-17-25.720856,"96.60,89.19"
2024-05-28_13-17-25.753625,"84.26,67.03"
2024-05-28_13-17-25.786405,"78.53,79.23"
2024-05-28_13-17-25.819159,"73.76,72.41"
2024-05-28_13-17-25.851950,"87.77,81.36"
2024-05-28_13-17-25.884602,"86.94,79.72"
2024-05-28_13-17-25.913367,"85.92,67.85"
2024-05-28_13-17-25.946155,"91.41,67.71"
2024-05-28_13-17-25.978943,"85.65,54.01"
2024-05-28_13-17-26.011723,"73.89,83.00"
2024-05-28_13-17-26.044428,"84.41,81.16"
2024-05-28_13-17-26.077249,"95.55,68.21"
2024-05-28_13-17-26.109957,"88.55,77.67"
2024-05-28_13-17-26.138673,"85.71,83.11"
2024-05-28_13-17-26.171434,"69.89,70.23"
2024-05-28_13-17-26.204216,"88.75,80.74"
2024-05-28_13-17-26.236990,"84.67,72.32"
2024-05-28_13-17-26.269754,"97.75,45.62"
2024-05-28_13-17-26.302499,"73.29,67.45"
2024-05-28_13-17-26.335202,"79.57,78.51"
2024-05-28_13-17-26.363995,"86.12,86.20"
2024-05-28_13-17-26.396702,"76.26,79.29"
2024-05-28_13-17-26.429532,"80.83,82.48"
2024-05-28_13-17-26.462236,"86.25,82.00"
2024-05-28_13-17-26.495015,"84.77,68.48"
2024-05-28_13-17-26.527770,"81.11,81.14"
2024-05-28_13-17-26.560498,"103.40,67.81"
2024-05-28_13-17-26.589243,"90.03,55.48"
2024-05-28_13-17-26.622007,"66.55,87.89"
2024-05-28_13-17-26.654767,"94.59,76.76"
2024-05-28_13-17-26.687541,"92.21,85.17"
2024-05-28_13-17-26.720328,"100.08,88.62"
2024-05-28_13-17-26.753172,"72.99,73.94"
2024-05-28_13-17-26.785756,"81.28,79.44"
2024-05-28_13-17-26.814501,"82.45,70.86"
2024-05-28_13-17-26.847358,"81.07,77.86"
2024-05-28_13-17-26.880073,"107.24,56.68"
2024-05-28_13-17-26.912814,"71.93,84.28"
2024-05-28_13-17-26.945652,"74.55,73.30"
2024-05-28_13-17-26.978442,"92.63,88.94"
2024-05-28_13-17-27.011045,"88.61,77.04"
2024-05-28_13-17-27.039856,"96.70,80.37"
2024-05-28_13-17-27.072579,"84.17,70.39"
2024-05-28_13-17-27.105347,"77.29,79.45"
2024-05-28_13-17-27.138113,"84.24,71.77"
2024-05-28_13-17-27.170928,"87.76,70.07"
2024-05-28_13-17-27.203722,"100.88,52.96"
2024-05-28_13-17-27.236327,"69.68,57.80"
2024-05-28_13-17-27.265103,"90.03,79.18"
2024-05-28_13-17-27.297890,"104.80,94.66"
2024-05-28_13-17-27.330657,"76.09,81.32"
2024-05-28_13-17-27.363416,"78.03,80.29"
2024-05-28_13-17-27.396193,"86.78,72.81"
2024-05-28_13-17-27.429087,"80.91,75.70"
2024-05-28_13-17-27.461617,"95.01,74.14"
2024-05-28_13-17-27.494345,"100.49,55.43"
2024-05-28_13-17-27.523163,"103.85,52.04"
2024-05-28_13-17-27.555945,"70.15,71.17"
2024-05-28_13-17-27.588665,"95.54,81.85"
2024-05-28_13-17-27.621421,"98.30,84.27"
2024-05-28_13-17-27.654211,"80.44,80.08"
2024-05-28_13-17-27.686906,"74.39,79.29"
2024-05-28_13-17-27.715693,"85.87,71.04"
2024-05-28_13-17-27.748398,"88.39,82.99"
2024-05-28_13-17-27.781164,"90.17,82.85"
2024-05-28_13-17-27.813952,"83.32,51.80"
2024-05-28_13-17-27.846748,"92.59,51.65"
2024-05-28_13-17-27.879452,"70.11,87.29"
2024-05-28_13-17-27.912183,"89.63,76.02"
2024-05-28_13-17-27.944874,"101.00,87.80"
2024-05-28_13-17-27.973690,"69.94,78.61"
2024-05-28_13-17-28.006491,"84.33,76.20"
2024-05-28_13-17-28.039209,"89.16,83.90"
2024-05-28_13-17-28.072009,"76.62,70.64"
2024-05-28_13-17-28.104769,"90.40,81.55"
2024-05-28_13-17-28.137497,"89.93,56.06"
2024-05-28_13-17-28.170236,"91.54,45.95"
2024-05-28_13-17-28.198994,"73.97,84.69"
2024-05-28_13-17-28.231776,"94.37,84.34"
2024-05-28_13-17-28.264505,"70.85,73.89"
2024-05-28_13-17-28.300143,"91.32,76.42"
2024-05-28_13-17-28.337846,"88.83,73.46"
2024-05-28_13-17-28.363050,"91.21,65.58"
2024-05-28_13-17-28.395568,"94.11,61.83"
2024-05-28_13-17-28.424381,"94.64,62.16"
2024-05-28_13-17-28.457175,"102.48,76.60"
2024-05-28_13-17-28.489828,"61.69,78.83"
2024-05-28_13-17-28.522590,"93.86,87.84"
2024-05-28_13-17-28.555373,"93.19,62.82"
2024-05-28_13-17-28.588498,"86.71,84.00"
2024-05-28_13-17-28.621006,"78.14,96.07"
2024-05-28_13-17-28.649671,"85.90,63.47"
2024-05-28_13-17-28.682347,"87.34,82.09"
2024-05-28_13-17-28.715225,"87.45,72.17"
2024-05-28_13-17-28.748038,"79.92,46.94"
2024-05-28_13-17-28.780731,"92.61,59.30"
2024-05-28_13-17-28.813379,"58.23,66.92"
2024-05-28_13-17-28.846332,"91.83,93.07"
2024-05-28_13-17-28.889784,"74.63,78.15"
2024-05-28_13-17-28.908557,"65.62,91.70"
2024-05-28_13-17-28.940718,"78.39,89.89"
2024-05-28_13-17-28.973214,"83.84,69.37"
2024-05-28_13-17-29.006070,"81.82,80.14"
2024-05-28_13-17-29.038597,"84.36,72.06"
2024-05-28_13-17-29.071295,"97.13,53.87"
2024-05-28_13-17-29.100161,"77.34,51.86"
2024-05-28_13-17-29.132871,"90.24,89.58"
2024-05-28_13-17-29.165652,"77.05,74.27"
2024-05-28_13-17-29.198428,"88.29,85.67"
2024-05-28_13-17-29.231315,"56.54,75.61"
2024-05-28_13-17-29.264017,"94.18,73.92"
2024-05-28_13-17-29.296747,"91.35,70.35"
2024-05-28_13-17-29.325375,"86.34,70.12"
2024-05-28_13-17-29.358253,"93.79,65.42"
2024-05-28_13-17-29.390916,"71.85,85.03"
2024-05-28_13-17-29.423770,"85.12,96.42"
2024-05-28_13-17-29.456495,"84.91,84.00"
2024-05-28_13-17-29.489174,"75.98,93.42"
2024-05-28_13-17-29.521870,"87.62,88.35"
2024-05-28_13-17-29.550718,"77.17,70.78"
2024-05-28_13-17-29.583414,"85.80,78.23"
2024-05-28_13-17-29.617097,"82.58,71.97"
2024-05-28_13-17-29.648955,"89.18,82.79"
2024-05-28_13-17-29.681727,"94.85,52.44"
2024-05-28_13-17-29.714490,"78.99,54.81"
2024-05-28_13-17-29.747242,"66.92,77.22"
2024-05-28_13-17-29.775960,"101.83,84.93"
2024-05-28_13-17-29.808770,"73.09,71.77"
2024-05-28_13-17-29.841469,"75.56,79.27"
2024-05-28_13-17-29.874226,"80.13,72.23"
2024-05-28_13-17-29.907022,"76.29,76.65"
2024-05-28_13-17-29.939774,"94.21,84.29"
2024-05-28_13-17-29.972456,"75.71,69.84"
2024-05-28_13-17-30.001194,"97.34,52.04"
2024-05-28_13-17-30.033963,"72.67,91.07"
2024-05-28_13-17-30.066738,"92.28,84.14"
2024-05-28_13-17-30.099517,"92.99,89.83"
2024-05-28_13-17-30.132268,"83.52,78.79"
2024-05-28_13-17-30.165099,"75.50,77.81"
2024-05-28_13-17-30.197766,"86.17,71.77"
2024-05-28_13-17-30.230472,"87.27,81.55"
2024-05-28_13-17-30.259270,"88.04,80.73"
2024-05-28_13-17-30.292073,"93.42,68.15"
2024-05-28_13-17-30.324817,"93.73,50.76"
2024-05-28_13-17-30.357561,"63.71,76.17"
2024-05-28_13-17-30.390349,"92.33,74.47"
2024-05-28_13-17-30.423044,"70.55,72.47"
2024-05-28_13-17-30.455739,"86.96,77.07"
2024-05-28_13-17-30.484523,"85.98,76.57"
2024-05-28_13-17-30.517299,"81.31,83.79"
2024-05-28_13-17-30.550129,"76.68,70.66"
2024-05-28_13-17-30.582888,"90.72,82.13"
2024-05-28_13-17-30.615601,"89.75,55.76"
2024-05-28_13-17-30.648299,"89.59,48.08"
2024-05-28_13-17-30.681015,"73.44,82.32"
2024-05-28_13-17-30.709842,"89.53,77.97"
2024-05-28_13-17-30.742583,"83.03,72.35"
2024-05-28_13-17-30.775345,"75.10,73.76"
2024-05-28_13-17-30.808133,"89.93,81.92"
2024-05-28_13-17-30.840872,"85.04,79.62"
2024-05-28_13-17-30.873605,"83.21,67.81"
2024-05-28_13-17-30.906312,"83.30,68.19"
2024-05-28_13-17-30.935112,"94.78,57.00"
2024-05-28_13-17-30.967881,"70.94,81.99"
2024-05-28_13-17-31.000663,"91.08,88.85"
2024-05-28_13-17-31.033517,"95.79,90.25"
2024-05-28_13-17-31.066349,"94.16,84.63"
2024-05-28_13-17-31.098899,"87.04,87.33"
2024-05-28_13-17-31.131610,"69.95,71.54"
2024-05-28_13-17-31.160400,"85.78,78.96"
2024-05-28_13-17-31.193199,"88.15,71.26"
2024-05-28_13-17-31.225967,"85.51,77.55"
2024-05-28_13-17-31.258672,"100.88,58.07"
2024-05-28_13-17-31.292357,"55.32,78.24"
2024-05-28_13-17-31.324219,"95.46,89.59"
2024-05-28_13-17-31.356882,"78.59,71.94"
2024-05-28_13-17-31.385660,"88.30,85.90"
2024-05-28_13-17-31.418437,"80.41,76.78"
2024-05-28_13-17-31.451457,"80.15,69.71"
2024-05-28_13-17-31.484011,"80.17,79.72"
2024-05-28_13-17-31.516737,"84.07,72.04"
2024-05-28_13-17-31.549462,"93.90,69.93"
2024-05-28_13-17-31.582250,"91.49,82.96"
2024-05-28_13-17-31.610957,"54.39,61.80"
2024-05-28_13-17-31.643730,"102.86,95.34"
2024-05-28_13-17-31.676507,"94.07,71.02"
2024-05-28_13-17-31.709333,"76.06,75.09"
2024-05-28_13-17-31.742020,"84.83,79.05"
2024-05-28_13-17-31.774769,"86.94,71.08"
2024-05-28_13-17-31.807466,"80.48,77.02"
2024-05-28_13-17-31.836284,"93.44,84.32"
2024-05-28_13-17-31.869005,"97.95,54.80"
2024-05-28_13-17-31.901799,"75.43,51.93"
2024-05-28_13-17-31.934534,"83.01,85.37"
2024-05-28_13-17-31.967376,"93.73,84.72"
2024-05-28_13-17-32.000032,"92.14,83.08"
2024-05-28_13-17-32.032750,"85.72,72.26"
2024-05-28_13-17-32.061533,"83.48,78.09"
2024-05-28_13-17-32.094314,"78.47,70.28"
2024-05-28_13-17-32.127091,"88.09,82.33"
2024-05-28_13-17-32.159907,"88.26,68.84"
2024-05-28_13-17-32.192683,"91.28,53.23"
2024-05-28_13-17-32.225335,"70.02,95.92"
2024-05-28_13-17-32.258036,"95.17,91.77"
2024-05-28_13-17-32.286801,"84.38,66.77"
2024-05-28_13-17-32.319570,"84.21,78.67"
2024-05-28_13-17-32.352328,"74.23,72.86"
2024-05-28_13-17-32.385109,"84.75,77.02"
2024-05-28_13-17-32.417879,"94.06,83.85"
2024-05-28_13-17-32.450660,"78.14,70.49"
2024-05-28_13-17-32.483351,"105.43,51.74"
2024-05-28_13-17-32.512071,"81.50,66.88"
2024-05-28_13-17-32.544834,"80.99,80.63"
2024-05-28_13-17-32.577561,"94.38,87.32"
2024-05-28_13-17-32.610366,"76.85,67.59"
2024-05-28_13-17-32.643163,"72.95,78.16"
2024-05-28_13-17-32.675925,"81.33,72.53"
2024-05-28_13-17-32.708618,"85.99,81.43"
2024-05-28_13-17-32.737357,"88.57,80.86"
2024-05-28_13-17-32.770118,"84.89,68.44"
2024-05-28_13-17-32.802876,"92.95,51.49"
2024-05-28_13-17-32.835659,"70.66,101.15"
2024-05-28_13-17-32.868423,"83.29,83.78"
2024-05-28_13-17-32.901185,"104.83,83.34"
2024-05-28_13-17-32.933902,"78.05,64.79"
2024-05-28_13-17-32.962669,"80.10,79.01"
2024-05-28_13-17-32.995512,"88.05,84.51"
2024-05-28_13-17-33.028225,"75.79,69.64"
2024-05-28_13-17-33.061019,"98.95,66.96"
2024-05-28_13-17-33.093729,"82.16,56.42"
2024-05-28_13-17-33.126455,"87.68,46.11"
2024-05-28_13-17-33.159177,"68.76,85.64"
2024-05-28_13-17-33.192105,"91.21,76.30"
2024-05-28_13-17-33.220702,"100.71,88.39"
2024-05-28_13-17-33.253533,"76.81,82.11"
2024-05-28_13-17-33.286244,"85.01,82.43"
2024-05-28_13-17-33.319029,"87.93,78.75"
2024-05-28_13-17-33.351754,"82.29,68.17"
2024-05-28_13-17-33.384441,"81.99,81.72"
2024-05-28_13-17-33.417174,"95.28,72.27"
2024-05-28_13-17-33.445983,"85.53,54.38"
2024-05-28_13-17-33.478730,"68.74,72.56"
2024-05-28_13-17-33.511583,"91.02,75.06"
2024-05-28_13-17-33.544358,"96.60,87.55"
2024-05-28_13-17-33.577093,"109.93,91.84"
2024-05-28_13-17-33.609714,"75.55,72.47"
2024-05-28_13-17-33.642415,"80.65,78.45"
2024-05-28_13-17-33.671311,"85.78,71.72"
2024-05-28_13-17-33.704054,"81.56,78.66"
2024-05-28_13-17-33.736817,"107.76,56.20"
2024-05-28_13-17-33.769601,"71.57,58.57"
2024-05-28_13-17-33.802396,"78.19,91.98"
2024-05-28_13-17-33.835058,"96.47,87.60"
2024-05-28_13-17-33.868838,"84.36,75.32"
2024-05-28_13-17-33.896597,"75.85,79.95"
2024-05-28_13-17-33.929386,"84.18,70.02"
2024-05-28_13-17-33.962075,"78.20,80.34"
2024-05-28_13-17-33.994851,"85.47,71.74"
2024-05-28_13-17-34.027660,"87.01,82.40"
2024-05-28_13-17-34.060397,"99.29,71.37"
2024-05-28_13-17-34.093024,"68.02,60.94"
2024-05-28_13-17-34.121807,"88.50,88.80"
2024-05-28_13-17-34.154612,"98.99,92.77"
2024-05-28_13-17-34.187362,"92.13,80.86"
2024-05-28_13-17-34.220154,"79.10,77.92"
2024-05-28_13-17-34.252850,"87.43,72.06"
2024-05-28_13-17-34.285614,"80.06,76.67"
2024-05-28_13-17-34.318514,"96.29,84.27"
2024-05-28_13-17-34.347098,"84.14,70.17"
2024-05-28_13-17-34.379945,"91.90,79.93"
2024-05-28_13-17-34.412827,"74.97,76.52"
2024-05-28_13-17-34.445472,"76.04,73.34"
2024-05-28_13-17-34.478157,"87.32,77.48"
2024-05-28_13-17-34.510941,"79.06,75.53"
2024-05-28_13-17-34.543615,"79.44,70.12"
2024-05-28_13-17-34.572480,"88.42,60.55"
2024-05-28_13-17-34.609198,"89.08,71.50"
2024-05-28_13-17-34.638059,"91.64,92.01"
2024-05-28_13-17-34.670876,"90.69,66.19"
2024-05-28_13-17-34.703839,"70.96,82.18"
2024-05-28_13-17-34.736167,"85.64,92.93"
2024-05-28_13-17-34.768890,"97.10,82.27"
2024-05-28_13-17-34.797679,"74.16,69.71"
2024-05-28_13-17-34.830568,"79.90,74.16"
2024-05-28_13-17-34.863282,"105.66,79.05"
2024-05-28_13-17-34.896201,"86.65,85.50"
2024-05-28_13-17-34.928827,"78.12,54.83"
2024-05-28_13-17-34.961474,"88.06,52.81"
2024-05-28_13-17-34.994161,"98.76,56.32"
2024-05-28_13-17-35.022986,"71.97,47.09"
2024-05-28_13-17-35.055726,"91.90,90.62"
2024-05-28_13-17-35.088471,"86.11,62.76"
2024-05-28_13-17-35.121204,"77.99,81.61"
2024-05-28_13-17-35.154003,"83.86,72.95"
2024-05-28_13-17-35.186763,"84.56,81.48"
2024-05-28_13-17-35.219434,"85.75,80.26"
2024-05-28_13-17-35.248188,"84.26,67.61"
2024-05-28_13-17-35.280951,"81.20,81.35"
2024-05-28_13-17-35.313743,"104.89,58.45"
2024-05-28_13-17-35.346518,"65.16,69.51"
2024-05-28_13-17-35.379263,"94.30,84.28"
2024-05-28_13-17-35.412016,"83.66,62.17"
2024-05-28_13-17-35.444779,"81.77,80.82"
2024-05-28_13-17-35.473921,"90.42,83.73"
2024-05-28_13-17-35.506421,"85.54,59.82"
2024-05-28_13-17-35.539098,"100.37,72.76"
2024-05-28_13-17-35.571794,"95.69,72.53"
2024-05-28_13-17-35.604545,"89.37,77.70"
2024-05-28_13-17-35.637311,"92.36,73.99"
2024-05-28_13-17-35.670023,"56.85,76.49"
2024-05-28_13-17-35.698876,"93.37,91.16"
2024-05-28_13-17-35.731557,"69.87,68.23"
2024-05-28_13-17-35.764309,"85.30,83.08"
2024-05-28_13-17-35.797057,"82.84,77.14"
2024-05-28_13-17-35.829843,"86.51,68.43"
2024-05-28_13-17-35.862574,"82.28,80.21"
2024-05-28_13-17-35.895294,"83.24,70.93"
2024-05-28_13-17-35.924041,"87.51,69.79"
2024-05-28_13-17-35.956836,"80.56,76.11"
2024-05-28_13-17-35.989566,"72.29,77.51"
2024-05-28_13-17-36.022383,"103.54,95.41"
2024-05-28_13-17-36.055199,"82.21,86.92"
2024-05-28_13-17-36.087888,"79.29,74.53"
2024-05-28_13-17-36.120575,"85.22,78.18"
2024-05-28_13-17-36.149326,"76.89,71.18"
2024-05-28_13-17-36.182066,"68.72,76.66"
2024-05-28_13-17-36.214885,"93.41,71.69"
2024-05-28_13-17-36.247650,"92.85,55.49"
2024-05-28_13-17-36.280394,"73.65,53.21"
2024-05-28_13-17-36.313186,"90.01,84.97"
2024-05-28_13-17-36.345879,"86.91,71.21"
2024-05-28_13-17-36.374638,"83.33,80.20"
2024-05-28_13-17-36.407404,"74.10,71.07"
2024-05-28_13-17-36.440204,"84.61,78.80"
2024-05-28_13-17-36.472899,"83.39,70.97"
2024-05-28_13-17-36.505724,"89.01,68.35"
2024-05-28_13-17-36.538455,"88.31,52.83"
2024-05-28_13-17-36.571155,"92.55,53.30"
2024-05-28_13-17-36.599916,"65.81,76.74"
2024-05-28_13-17-36.632669,"94.48,93.41"
2024-05-28_13-17-36.665437,"94.81,86.18"
2024-05-28_13-17-36.698198,"83.74,79.36"
2024-05-28_13-17-36.730986,"77.42,73.63"
2024-05-28_13-17-36.763736,"73.70,76.89"
2024-05-28_13-17-36.796439,"92.39,83.29"
2024-05-28_13-17-36.829134,"76.75,70.28"
2024-05-28_13-17-36.857959,"94.95,68.81"
2024-05-28_13-17-36.890711,"78.03,64.44"
2024-05-28_13-17-36.923470,"83.85,88.05"
2024-05-28_13-17-36.956330,"90.40,88.78"
2024-05-28_13-17-36.989025,"88.56,66.76"
2024-05-28_13-17-37.021727,"73.90,79.83"
2024-05-28_13-17-37.054460,"85.22,71.62"
2024-05-28_13-17-37.083211,"84.60,80.63"
2024-05-28_13-17-37.115988,"88.63,81.35"
2024-05-28_13-17-37.148788,"88.12,69.37"
2024-05-28_13-17-37.181580,"98.72,51.04"
2024-05-28_13-17-37.214354,"67.81,92.18"
2024-05-28_13-17-37.247025,"94.69,75.18"
2024-05-28_13-17-37.279701,"93.42,82.30"
2024-05-28_13-17-37.308587,"86.01,75.84"
2024-05-28_13-17-37.341290,"89.27,76.62"
2024-05-28_13-17-37.374083,"80.50,83.75"
2024-05-28_13-17-37.406845,"76.73,69.27"
2024-05-28_13-17-37.439637,"89.66,81.52"
2024-05-28_13-17-37.472305,"102.33,57.18"
2024-05-28_13-17-37.504995,"81.54,72.29"
2024-05-28_13-17-37.533790,"69.71,74.28"
2024-05-28_13-17-37.566609,"79.04,82.38"
2024-05-28_13-17-37.599344,"93.42,73.42"
2024-05-28_13-17-37.632129,"77.14,76.06"
2024-05-28_13-17-37.669808,"92.50,81.88"
2024-05-28_13-17-37.699551,"85.30,69.01"
2024-05-28_13-17-37.737043,"81.29,70.41"
2024-05-28_13-17-37.761307,"90.98,81.87"
2024-05-28_13-17-37.791917,"75.76,91.36"
2024-05-28_13-17-37.824836,"84.15,81.59"
2024-05-28_13-17-37.857494,"87.57,92.37"
2024-05-28_13-17-37.890716,"86.55,74.52"
2024-05-28_13-17-37.922878,"65.91,78.42"
