timestamp,EMG
2024-05-28_13-26-29.145187,"64.37,73.77"
2024-05-28_13-26-29.177975,"59.26,64.89"
2024-05-28_13-26-29.210737,"71.38,77.44"
2024-05-28_13-26-29.243539,"55.39,72.94"
2024-05-28_13-26-29.276216,"52.50,68.90"
2024-05-28_13-26-29.309028,"84.16,67.56"
2024-05-28_13-26-29.341679,"76.53,70.37"
2024-05-28_13-26-29.370473,"84.20,41.21"
2024-05-28_13-26-29.403195,"77.63,58.84"
2024-05-28_13-26-29.436068,"73.34,47.88"
2024-05-28_13-26-29.468750,"42.73,69.98"
2024-05-28_13-26-29.501528,"60.67,75.13"
2024-05-28_13-26-29.534260,"68.82,68.93"
2024-05-28_13-26-29.567025,"55.48,72.69"
2024-05-28_13-26-29.595720,"57.34,79.03"
2024-05-28_13-26-29.628490,"90.79,74.09"
2024-05-28_13-26-29.661263,"77.53,61.17"
2024-05-28_13-26-29.694061,"87.85,45.10"
2024-05-28_13-26-29.726803,"73.58,48.83"
2024-05-28_13-26-29.759541,"65.39,65.84"
2024-05-28_13-26-29.792248,"54.36,75.83"
2024-05-28_13-26-29.821060,"54.27,71.60"
2024-05-28_13-26-29.853814,"63.18,68.38"
2024-05-28_13-26-29.886555,"54.70,72.96"
2024-05-28_13-26-29.919309,"75.54,87.13"
2024-05-28_13-26-29.952053,"73.50,72.16"
2024-05-28_13-26-29.984914,"78.47,60.46"
2024-05-28_13-26-30.017548,"87.10,48.21"
2024-05-28_13-26-30.046240,"64.59,32.98"
2024-05-28_13-26-30.079047,"50.97,75.60"
2024-05-28_13-26-30.111823,"56.56,65.83"
2024-05-28_13-26-30.145114,"51.74,72.32"
2024-05-28_13-26-30.177452,"76.42,67.50"
2024-05-28_13-26-30.210150,"48.81,72.29"
2024-05-28_13-26-30.242857,"94.08,84.31"
2024-05-28_13-26-30.271547,"60.72,70.93"
2024-05-28_13-26-30.304317,"78.71,60.46"
2024-05-28_13-26-30.337226,"102.66,50.29"
2024-05-28_13-26-30.369880,"60.44,61.49"
2024-05-28_13-26-30.402619,"51.83,73.32"
2024-05-28_13-26-30.435385,"56.91,64.88"
2024-05-28_13-26-30.468086,"53.51,72.69"
2024-05-28_13-26-30.496861,"72.00,68.37"
2024-05-28_13-26-30.529639,"50.35,87.82"
2024-05-28_13-26-30.562401,"85.91,68.35"
2024-05-28_13-26-30.595288,"68.25,69.09"
2024-05-28_13-26-30.627967,"87.36,57.57"
2024-05-28_13-26-30.660681,"78.53,59.28"
2024-05-28_13-26-30.693338,"54.29,64.88"
2024-05-28_13-26-30.722087,"51.36,71.29"
2024-05-28_13-26-30.754937,"62.31,66.94"
2024-05-28_13-26-30.787813,"57.89,70.88"
2024-05-28_13-26-30.820382,"52.20,79.18"
2024-05-28_13-26-30.853147,"52.83,76.21"
2024-05-28_13-26-30.885928,"91.10,74.24"
2024-05-28_13-26-30.918675,"75.55,67.86"
2024-05-28_13-26-30.947352,"74.27,78.39"
2024-05-28_13-26-30.980115,"57.99,71.77"
2024-05-28_13-26-31.012889,"49.54,64.76"
2024-05-28_13-26-31.045658,"52.05,70.59"
2024-05-28_13-26-31.078419,"61.92,65.83"
2024-05-28_13-26-31.111257,"71.76,77.74"
2024-05-28_13-26-31.143955,"49.48,74.65"
2024-05-28_13-26-31.176587,"78.99,75.03"
2024-05-28_13-26-31.205467,"73.22,76.16"
2024-05-28_13-26-31.238198,"83.69,66.96"
2024-05-28_13-26-31.270987,"73.03,40.78"
2024-05-28_13-26-31.303673,"86.49,59.42"
2024-05-28_13-26-31.336469,"53.93,65.13"
2024-05-28_13-26-31.369190,"45.61,69.74"
2024-05-28_13-26-31.401893,"61.90,76.52"
2024-05-28_13-26-31.430667,"64.68,69.30"
2024-05-28_13-26-31.463438,"51.66,75.00"
2024-05-28_13-26-31.496208,"87.91,71.21"
2024-05-28_13-26-31.528988,"73.94,78.11"
2024-05-28_13-26-31.561733,"83.46,41.04"
2024-05-28_13-26-31.594511,"66.88,42.57"
2024-05-28_13-26-31.627173,"62.60,58.99"
2024-05-28_13-26-31.655984,"55.51,65.11"
2024-05-28_13-26-31.688734,"57.10,76.03"
2024-05-28_13-26-31.721503,"65.14,72.11"
2024-05-28_13-26-31.754262,"58.79,70.54"
2024-05-28_13-26-31.787045,"60.57,93.95"
2024-05-28_13-26-31.819713,"90.17,63.71"
2024-05-28_13-26-31.852495,"70.89,77.33"
2024-05-28_13-26-31.881259,"87.90,42.08"
2024-05-28_13-26-31.914014,"82.79,61.97"
2024-05-28_13-26-31.946753,"39.83,72.65"
2024-05-28_13-26-31.979512,"60.75,77.84"
2024-05-28_13-26-32.012302,"56.04,66.77"
2024-05-28_13-26-32.045032,"64.29,73.23"
2024-05-28_13-26-32.077711,"59.45,70.92"
2024-05-28_13-26-32.106512,"78.64,80.69"
2024-05-28_13-26-32.139324,"79.74,76.91"
2024-05-28_13-26-32.172066,"74.60,65.51"
2024-05-28_13-26-32.204817,"85.87,38.99"
2024-05-28_13-26-32.237570,"81.55,65.12"
2024-05-28_13-26-32.270342,"58.96,63.91"
2024-05-28_13-26-32.303076,"51.62,71.15"
2024-05-28_13-26-32.331773,"57.76,65.40"
2024-05-28_13-26-32.364558,"66.16,72.31"
2024-05-28_13-26-32.397289,"54.92,70.87"
2024-05-28_13-26-32.430052,"84.98,78.94"
2024-05-28_13-26-32.462810,"72.79,77.20"
2024-05-28_13-26-32.495638,"81.42,49.18"
2024-05-28_13-26-32.528379,"82.92,34.57"
2024-05-28_13-26-32.563302,"76.55,70.98"
2024-05-28_13-26-32.604415,"53.82,65.26"
2024-05-28_13-26-32.622944,"52.75,70.59"
2024-05-28_13-26-32.655568,"60.36,66.72"
2024-05-28_13-26-32.688193,"59.81,72.12"
2024-05-28_13-26-32.720871,"50.70,81.05"
2024-05-28_13-26-32.753639,"80.80,76.16"
2024-05-28_13-26-32.782381,"75.33,75.59"
2024-05-28_13-26-32.815082,"88.97,47.76"
2024-05-28_13-26-32.847835,"80.32,64.63"
2024-05-28_13-26-32.880706,"67.67,61.39"
2024-05-28_13-26-32.913385,"52.92,63.89"
2024-05-28_13-26-32.946134,"52.44,70.56"
2024-05-28_13-26-32.978811,"76.73,68.51"
2024-05-28_13-26-33.007576,"62.59,83.70"
2024-05-28_13-26-33.040477,"69.40,81.39"
2024-05-28_13-26-33.073175,"83.90,65.22"
2024-05-28_13-26-33.105910,"78.05,58.10"
2024-05-28_13-26-33.138757,"93.10,47.27"
2024-05-28_13-26-33.171566,"61.16,62.34"
2024-05-28_13-26-33.204080,"59.35,59.92"
2024-05-28_13-26-33.232857,"57.16,65.09"
2024-05-28_13-26-33.266464,"48.73,69.77"
2024-05-28_13-26-33.298451,"66.29,79.04"
2024-05-28_13-26-33.331203,"50.90,71.22"
2024-05-28_13-26-33.364005,"68.95,78.22"
2024-05-28_13-26-33.396798,"83.21,70.36"
2024-05-28_13-26-33.429425,"85.37,61.64"
2024-05-28_13-26-33.458198,"90.74,66.04"
2024-05-28_13-26-33.491042,"60.43,44.54"
2024-05-28_13-26-33.523866,"49.48,71.84"
2024-05-28_13-26-33.556507,"57.57,65.00"
2024-05-28_13-26-33.589260,"66.87,76.96"
2024-05-28_13-26-33.621998,"51.40,75.13"
2024-05-28_13-26-33.654697,"53.99,76.42"
2024-05-28_13-26-33.689209,"91.45,69.39"
2024-05-28_13-26-33.716364,"78.86,68.71"
2024-05-28_13-26-33.749123,"89.49,61.26"
2024-05-28_13-26-33.781763,"72.09,40.98"
2024-05-28_13-26-33.814657,"50.49,65.50"
2024-05-28_13-26-33.847286,"44.99,69.88"
2024-05-28_13-26-33.880004,"60.32,75.59"
2024-05-28_13-26-33.912666,"73.70,70.28"
2024-05-28_13-26-33.941425,"50.62,73.77"
2024-05-28_13-26-33.974227,"95.27,80.21"
2024-05-28_13-26-34.007014,"67.30,82.23"
2024-05-28_13-26-34.039818,"80.24,60.60"
2024-05-28_13-26-34.072554,"86.07,43.61"
2024-05-28_13-26-34.105289,"86.09,57.54"
2024-05-28_13-26-34.138193,"55.36,65.40"
2024-05-28_13-26-34.167157,"55.99,75.54"
2024-05-28_13-26-34.199557,"52.42,72.78"
2024-05-28_13-26-34.232303,"68.91,68.95"
2024-05-28_13-26-34.265075,"56.48,78.56"
2024-05-28_13-26-34.297810,"92.41,63.15"
2024-05-28_13-26-34.330541,"63.35,78.88"
2024-05-28_13-26-34.363272,"82.57,42.09"
2024-05-28_13-26-34.391979,"83.51,45.72"
2024-05-28_13-26-34.424820,"67.73,47.81"
2024-05-28_13-26-34.457605,"56.59,75.41"
2024-05-28_13-26-34.490335,"56.20,66.29"
2024-05-28_13-26-34.523109,"52.75,72.41"
2024-05-28_13-26-34.555835,"67.57,69.71"
2024-05-28_13-26-34.588540,"51.41,81.92"
2024-05-28_13-26-34.617286,"81.06,74.45"
2024-05-28_13-26-34.650069,"63.92,68.12"
2024-05-28_13-26-34.682880,"82.41,59.98"
2024-05-28_13-26-34.715640,"87.58,45.81"
2024-05-28_13-26-34.748482,"68.61,70.70"
2024-05-28_13-26-34.781125,"50.85,71.94"
2024-05-28_13-26-34.813786,"57.67,66.40"
2024-05-28_13-26-34.842549,"53.98,72.20"
2024-05-28_13-26-34.875320,"61.29,68.34"
2024-05-28_13-26-34.908144,"53.48,84.10"
2024-05-28_13-26-34.940877,"91.14,75.48"
2024-05-28_13-26-34.973633,"72.40,67.19"
2024-05-28_13-26-35.006397,"84.44,57.10"
2024-05-28_13-26-35.039082,"55.83,69.76"
2024-05-28_13-26-35.067859,"54.86,63.92"
2024-05-28_13-26-35.100604,"52.07,70.95"
2024-05-28_13-26-35.133395,"63.43,67.12"
2024-05-28_13-26-35.166162,"66.82,70.45"
2024-05-28_13-26-35.198900,"51.52,79.54"
2024-05-28_13-26-35.231660,"89.70,86.25"
2024-05-28_13-26-35.264405,"73.92,76.28"
2024-05-28_13-26-35.293156,"80.60,49.96"
2024-05-28_13-26-35.325905,"77.94,40.59"
2024-05-28_13-26-35.358614,"86.91,60.18"
2024-05-28_13-26-35.391394,"49.73,64.04"
2024-05-28_13-26-35.424130,"52.32,70.77"
2024-05-28_13-26-35.456907,"62.25,66.58"
2024-05-28_13-26-35.489639,"62.16,77.97"
2024-05-28_13-26-35.518385,"50.82,74.71"
2024-05-28_13-26-35.551150,"86.14,72.17"
2024-05-28_13-26-35.583922,"72.64,74.60"
2024-05-28_13-26-35.617047,"86.80,49.02"
2024-05-28_13-26-35.649456,"79.69,40.43"
2024-05-28_13-26-35.682254,"63.37,60.96"
2024-05-28_13-26-35.714991,"57.59,65.23"
2024-05-28_13-26-35.743668,"49.19,70.15"
2024-05-28_13-26-35.776416,"75.36,76.06"
2024-05-28_13-26-35.809193,"58.54,69.96"
2024-05-28_13-26-35.841952,"51.89,74.51"
2024-05-28_13-26-35.874706,"85.03,74.90"
2024-05-28_13-26-35.907484,"78.48,77.78"
2024-05-28_13-26-35.940214,"87.69,41.86"
2024-05-28_13-26-35.972919,"78.76,60.21"
2024-05-28_13-26-36.001704,"69.98,59.21"
2024-05-28_13-26-36.034461,"59.62,67.67"
2024-05-28_13-26-36.067211,"54.29,77.66"
2024-05-28_13-26-36.100005,"60.75,72.64"
2024-05-28_13-26-36.133014,"53.47,69.84"
2024-05-28_13-26-36.165452,"64.10,76.87"
2024-05-28_13-26-36.198161,"81.98,64.43"
2024-05-28_13-26-36.226968,"79.90,77.76"
2024-05-28_13-26-36.259745,"89.15,40.93"
2024-05-28_13-26-36.292489,"65.58,58.68"
2024-05-28_13-26-36.325258,"61.27,71.79"
2024-05-28_13-26-36.358021,"58.67,76.08"
2024-05-28_13-26-36.390802,"54.39,66.83"
2024-05-28_13-26-36.423434,"59.69,72.44"
2024-05-28_13-26-36.452236,"54.97,70.54"
2024-05-28_13-26-36.485096,"77.76,84.73"
2024-05-28_13-26-36.517785,"76.48,76.02"
2024-05-28_13-26-36.550523,"80.74,45.32"
2024-05-28_13-26-36.583322,"90.48,66.20"
2024-05-28_13-26-36.616047,"64.92,46.31"
2024-05-28_13-26-36.648724,"52.10,75.94"
2024-05-28_13-26-36.677514,"52.42,71.73"
2024-05-28_13-26-36.710275,"69.67,67.09"
2024-05-28_13-26-36.743056,"57.28,72.76"
2024-05-28_13-26-36.775831,"69.14,81.64"
2024-05-28_13-26-36.808568,"83.33,86.31"
2024-05-28_13-26-36.841323,"77.16,76.14"
2024-05-28_13-26-36.874056,"91.54,46.67"
2024-05-28_13-26-36.902806,"68.29,59.39"
2024-05-28_13-26-36.935556,"61.62,62.53"
2024-05-28_13-26-36.968314,"53.15,66.26"
2024-05-28_13-26-37.001065,"54.19,70.98"
2024-05-28_13-26-37.034007,"66.28,68.02"
2024-05-28_13-26-37.066614,"71.26,76.33"
2024-05-28_13-26-37.099291,"52.92,88.96"
2024-05-28_13-26-37.128019,"79.01,63.98"
2024-05-28_13-26-37.160810,"75.25,59.74"
2024-05-28_13-26-37.193599,"96.00,48.12"
2024-05-28_13-26-37.226370,"78.43,58.18"
2024-05-28_13-26-37.259190,"60.05,60.85"
2024-05-28_13-26-37.291896,"55.81,65.14"
2024-05-28_13-26-37.324560,"54.27,70.70"
2024-05-28_13-26-37.353295,"70.02,67.55"
2024-05-28_13-26-37.386094,"53.93,80.14"
2024-05-28_13-26-37.418874,"69.19,82.70"
2024-05-28_13-26-37.451612,"85.74,76.88"
2024-05-28_13-26-37.484427,"77.37,74.20"
2024-05-28_13-26-37.517186,"90.60,48.62"
2024-05-28_13-26-37.549921,"64.49,62.96"
2024-05-28_13-26-37.578600,"66.04,60.96"
2024-05-28_13-26-37.611366,"58.25,65.94"
2024-05-28_13-26-37.644184,"47.57,69.39"
2024-05-28_13-26-37.676934,"70.93,77.99"
2024-05-28_13-26-37.709698,"55.85,71.32"
2024-05-28_13-26-37.742468,"52.46,83.49"
2024-05-28_13-26-37.775206,"91.52,76.29"
2024-05-28_13-26-37.803876,"79.99,77.13"
2024-05-28_13-26-37.836643,"86.30,41.30"
2024-05-28_13-26-37.869461,"77.82,61.31"
2024-05-28_13-26-37.902196,"71.13,59.32"
2024-05-28_13-26-37.934949,"58.76,64.72"
2024-05-28_13-26-37.967714,"56.26,76.81"
2024-05-28_13-26-38.000418,"63.72,73.41"
2024-05-28_13-26-38.029221,"55.24,69.46"
2024-05-28_13-26-38.061911,"96.49,88.86"
2024-05-28_13-26-38.094694,"82.14,69.89"
2024-05-28_13-26-38.127616,"73.37,77.49"
2024-05-28_13-26-38.160183,"87.18,41.56"
2024-05-28_13-26-38.193056,"68.54,63.28"
2024-05-28_13-26-38.225745,"49.98,56.22"
2024-05-28_13-26-38.254436,"57.94,75.86"
2024-05-28_13-26-38.287211,"59.20,67.74"
2024-05-28_13-26-38.319953,"64.85,71.70"
2024-05-28_13-26-38.352744,"60.03,69.56"
2024-05-28_13-26-38.385503,"66.28,83.41"
2024-05-28_13-26-38.418235,"85.14,78.28"
2024-05-28_13-26-38.450951,"67.85,65.84"
2024-05-28_13-26-38.479689,"84.83,39.62"
2024-05-28_13-26-38.512459,"81.90,46.08"
2024-05-28_13-26-38.545979,"50.42,62.23"
2024-05-28_13-26-38.578039,"51.45,71.56"
2024-05-28_13-26-38.639267,"59.97,66.34"
2024-05-28_13-26-38.643530,"69.73,71.52"
2024-05-28_13-26-38.676225,"59.99,68.57"
2024-05-28_13-26-38.704975,"83.03,83.13"
2024-05-28_13-26-38.737810,"77.84,77.79"
2024-05-28_13-26-38.770532,"72.00,67.68"
2024-05-28_13-26-38.803285,"90.19,36.80"
2024-05-28_13-26-38.836052,"79.00,58.02"
2024-05-28_13-26-38.868814,"68.43,65.43"
2024-05-28_13-26-38.901485,"53.24,72.06"
2024-05-28_13-26-38.930238,"60.87,65.75"
2024-05-28_13-26-38.963030,"58.78,70.31"
2024-05-28_13-26-38.995773,"53.48,79.11"
2024-05-28_13-26-39.028592,"51.28,76.63"
2024-05-28_13-26-39.061312,"92.38,70.55"
2024-05-28_13-26-39.094093,"66.68,69.49"
2024-05-28_13-26-39.126776,"71.76,63.94"
2024-05-28_13-26-39.155536,"71.91,51.34"
2024-05-28_13-26-39.188304,"61.56,65.15"
2024-05-28_13-26-39.221093,"50.81,70.87"
2024-05-28_13-26-39.253854,"59.09,65.10"
2024-05-28_13-26-39.286619,"74.80,77.71"
2024-05-28_13-26-39.319345,"47.84,75.04"
2024-05-28_13-26-39.352095,"55.62,74.45"
2024-05-28_13-26-39.384749,"88.83,74.93"
2024-05-28_13-26-39.413561,"78.84,68.63"
2024-05-28_13-26-39.446327,"88.95,40.30"
2024-05-28_13-26-39.479131,"74.06,52.02"
2024-05-28_13-26-39.512044,"62.35,48.10"
2024-05-28_13-26-39.547811,"43.86,70.35"
2024-05-28_13-26-39.577346,"59.61,75.63"
2024-05-28_13-26-39.610079,"65.43,68.03"
2024-05-28_13-26-39.638863,"50.22,75.36"
2024-05-28_13-26-39.671651,"58.42,74.56"
2024-05-28_13-26-39.704413,"87.14,80.44"
2024-05-28_13-26-39.737184,"77.52,41.61"
2024-05-28_13-26-39.769982,"89.92,43.81"
2024-05-28_13-26-39.802880,"72.03,53.30"
2024-05-28_13-26-39.835329,"61.67,48.22"
2024-05-28_13-26-39.864119,"54.95,75.96"
2024-05-28_13-26-39.896905,"52.55,71.16"
2024-05-28_13-26-39.929624,"67.93,68.60"
2024-05-28_13-26-39.962380,"57.00,73.53"
2024-05-28_13-26-39.995296,"51.87,78.50"
2024-05-28_13-26-40.027906,"81.96,86.31"
2024-05-28_13-26-40.060629,"77.05,61.81"
2024-05-28_13-26-40.089456,"90.56,47.81"
2024-05-28_13-26-40.122177,"59.96,72.74"
2024-05-28_13-26-40.154938,"56.38,75.95"
2024-05-28_13-26-40.187761,"56.48,66.27"
2024-05-28_13-26-40.220514,"53.97,71.41"
2024-05-28_13-26-40.253284,"72.03,68.43"
2024-05-28_13-26-40.285967,"51.02,71.89"
2024-05-28_13-26-40.314671,"52.75,86.09"
2024-05-28_13-26-40.347577,"77.72,66.43"
2024-05-28_13-26-40.380307,"75.62,75.38"
2024-05-28_13-26-40.413031,"94.46,47.22"
2024-05-28_13-26-40.445773,"63.65,60.65"
2024-05-28_13-26-40.478467,"72.73,60.34"
2024-05-28_13-26-40.511175,"54.29,63.92"
2024-05-28_13-26-40.539981,"54.66,71.51"
2024-05-28_13-26-40.572676,"70.45,67.38"
2024-05-28_13-26-40.605501,"54.40,79.14"
2024-05-28_13-26-40.638316,"52.92,85.29"
2024-05-28_13-26-40.671000,"86.01,64.01"
2024-05-28_13-26-40.703709,"76.71,73.92"
2024-05-28_13-26-40.736471,"92.44,47.64"
2024-05-28_13-26-40.765415,"65.53,59.24"
2024-05-28_13-26-40.798020,"71.22,60.37"
2024-05-28_13-26-40.830788,"58.93,65.34"
2024-05-28_13-26-40.863493,"48.44,69.97"
2024-05-28_13-26-40.896358,"71.03,76.98"
2024-05-28_13-26-40.929088,"52.92,72.24"
2024-05-28_13-26-40.961671,"53.00,73.74"
2024-05-28_13-26-40.990477,"91.16,76.29"
2024-05-28_13-26-41.023313,"77.40,77.39"
2024-05-28_13-26-41.056101,"86.90,42.13"
2024-05-28_13-26-41.088782,"79.39,42.35"
2024-05-28_13-26-41.121642,"64.66,58.68"
2024-05-28_13-26-41.154277,"61.07,68.33"
2024-05-28_13-26-41.187018,"56.06,77.50"
2024-05-28_13-26-41.215786,"66.59,72.61"
2024-05-28_13-26-41.248505,"58.37,70.26"
2024-05-28_13-26-41.281367,"60.06,83.71"
2024-05-28_13-26-41.314075,"91.00,64.57"
2024-05-28_13-26-41.346865,"72.78,77.87"
2024-05-28_13-26-41.379661,"85.55,41.30"
2024-05-28_13-26-41.412312,"83.76,62.02"
2024-05-28_13-26-41.441017,"64.35,56.26"
2024-05-28_13-26-41.473888,"59.67,75.27"
2024-05-28_13-26-41.506596,"56.29,66.16"
2024-05-28_13-26-41.539364,"66.99,71.95"
2024-05-28_13-26-41.572094,"61.12,70.42"
2024-05-28_13-26-41.604829,"65.39,84.22"
2024-05-28_13-26-41.637610,"81.22,77.53"
2024-05-28_13-26-41.666284,"72.58,66.10"
2024-05-28_13-26-41.699133,"85.75,38.68"
2024-05-28_13-26-41.731858,"92.83,62.19"
2024-05-28_13-26-41.764659,"53.91,63.56"
2024-05-28_13-26-41.797391,"51.53,71.11"
2024-05-28_13-26-41.830215,"57.09,65.68"
2024-05-28_13-26-41.862897,"68.96,71.95"
2024-05-28_13-26-41.891639,"56.46,70.71"
2024-05-28_13-26-41.924303,"78.29,82.79"
2024-05-28_13-26-41.957185,"75.81,81.10"
2024-05-28_13-26-41.989910,"72.84,49.70"
2024-05-28_13-26-42.022756,"90.60,35.08"
2024-05-28_13-26-42.055435,"68.59,65.82"
2024-05-28_13-26-42.088152,"49.11,63.44"
2024-05-28_13-26-42.120802,"51.06,70.63"
2024-05-28_13-26-42.149619,"60.19,67.38"
2024-05-28_13-26-42.182480,"69.83,73.82"
2024-05-28_13-26-42.215293,"53.48,79.08"
2024-05-28_13-26-42.247937,"52.00,74.83"
2024-05-28_13-26-42.280665,"92.06,71.83"
2024-05-28_13-26-42.313439,"72.19,67.89"
2024-05-28_13-26-42.346149,"91.50,41.18"
2024-05-28_13-26-42.374943,"90.51,59.21"
2024-05-28_13-26-42.407659,"62.38,44.91"
2024-05-28_13-26-42.440483,"50.61,71.80"
2024-05-28_13-26-42.473201,"59.57,66.20"
2024-05-28_13-26-42.506010,"55.27,77.00"
2024-05-28_13-26-42.538737,"58.46,73.46"
2024-05-28_13-26-42.571388,"51.71,69.00"
2024-05-28_13-26-42.600291,"92.04,77.35"
2024-05-28_13-26-42.633005,"77.57,70.72"
2024-05-28_13-26-42.665760,"80.13,61.44"
2024-05-28_13-26-42.698573,"90.91,65.61"
2024-05-28_13-26-42.731278,"66.06,46.89"
2024-05-28_13-26-42.763984,"42.85,70.73"
2024-05-28_13-26-42.796620,"58.91,75.81"
2024-05-28_13-26-42.825461,"73.00,68.17"
2024-05-28_13-26-42.858274,"57.85,72.33"
2024-05-28_13-26-42.891045,"55.85,71.63"
2024-05-28_13-26-42.923839,"78.53,85.25"
2024-05-28_13-26-42.956535,"76.32,75.70"
2024-05-28_13-26-42.989486,"78.82,45.14"
2024-05-28_13-26-43.021923,"79.24,39.26"
2024-05-28_13-26-43.050732,"64.80,60.73"
2024-05-28_13-26-43.083549,"64.89,77.61"
2024-05-28_13-26-43.116407,"53.52,71.89"
2024-05-28_13-26-43.149035,"60.70,65.88"
2024-05-28_13-26-43.181745,"55.01,76.02"
2024-05-28_13-26-43.214546,"52.36,69.88"
2024-05-28_13-26-43.247342,"87.53,92.44"
2024-05-28_13-26-43.276038,"74.73,77.83"
2024-05-28_13-26-43.308890,"77.66,67.08"
2024-05-28_13-26-43.341529,"89.37,34.76"
2024-05-28_13-26-43.374362,"79.43,70.94"
2024-05-28_13-26-43.407032,"53.15,64.54"
2024-05-28_13-26-43.439844,"51.34,71.00"
2024-05-28_13-26-43.472503,"62.19,65.73"
2024-05-28_13-26-43.501411,"60.08,71.75"
2024-05-28_13-26-43.534033,"54.79,79.79"
2024-05-28_13-26-43.566788,"51.71,74.53"
2024-05-28_13-26-43.599636,"92.18,74.28"
2024-05-28_13-26-43.632354,"72.57,69.18"
2024-05-28_13-26-43.665120,"92.44,40.61"
2024-05-28_13-26-43.697757,"75.92,63.20"
2024-05-28_13-26-43.726577,"68.27,46.44"
2024-05-28_13-26-43.759348,"50.54,71.45"
2024-05-28_13-26-43.792078,"60.09,65.44"
2024-05-28_13-26-43.824831,"67.30,77.36"
2024-05-28_13-26-43.857618,"55.67,73.21"
2024-05-28_13-26-43.890393,"53.97,80.34"
2024-05-28_13-26-43.923090,"95.39,66.79"
2024-05-28_13-26-43.951799,"76.29,70.01"
2024-05-28_13-26-43.984655,"82.28,61.95"
2024-05-28_13-26-44.017344,"79.79,65.65"
2024-05-28_13-26-44.050107,"63.85,46.37"
2024-05-28_13-26-44.082892,"41.62,70.57"
2024-05-28_13-26-44.115656,"61.22,75.80"
2024-05-28_13-26-44.148397,"70.93,67.64"
2024-05-28_13-26-44.177101,"82.51,75.49"
2024-05-28_13-26-44.209862,"56.12,71.10"
2024-05-28_13-26-44.242677,"64.29,80.30"
2024-05-28_13-26-44.275457,"78.08,76.69"
2024-05-28_13-26-44.308198,"78.06,65.61"
2024-05-28_13-26-44.340898,"87.38,38.19"
2024-05-28_13-26-44.373627,"68.61,65.18"
2024-05-28_13-26-44.402737,"59.38,63.87"
2024-05-28_13-26-44.435196,"51.39,70.89"
2024-05-28_13-26-44.467951,"57.89,65.23"
2024-05-28_13-26-44.500706,"66.47,72.08"
2024-05-28_13-26-44.533433,"56.53,70.47"
2024-05-28_13-26-44.566211,"78.18,82.82"
2024-05-28_13-26-44.598922,"75.18,78.61"
2024-05-28_13-26-44.631650,"74.63,68.20"
2024-05-28_13-26-44.660411,"88.67,34.57"
2024-05-28_13-26-44.693240,"81.00,45.92"
2024-05-28_13-26-44.726032,"52.55,64.00"
2024-05-28_13-26-44.758765,"51.12,70.88"
2024-05-28_13-26-44.791478,"60.97,65.90"
2024-05-28_13-26-44.824158,"59.74,70.11"
2024-05-28_13-26-44.856866,"53.12,80.21"
2024-05-28_13-26-44.885722,"51.40,76.84"
2024-05-28_13-26-44.918494,"93.65,69.05"
2024-05-28_13-26-44.951197,"72.22,69.18"
2024-05-28_13-26-44.983956,"91.77,61.25"
2024-05-28_13-26-45.016745,"77.04,59.14"
2024-05-28_13-26-45.049450,"67.38,45.23"
2024-05-28_13-26-45.082154,"50.57,71.63"
2024-05-28_13-26-45.110944,"61.05,65.10"
2024-05-28_13-26-45.143733,"66.56,78.20"
2024-05-28_13-26-45.176464,"71.80,65.78"
2024-05-28_13-26-45.209393,"51.95,68.45"
2024-05-28_13-26-45.242231,"90.96,77.38"
2024-05-28_13-26-45.274772,"76.22,70.95"
2024-05-28_13-26-45.307463,"80.88,42.68"
2024-05-28_13-26-45.336205,"90.36,68.94"
2024-05-28_13-26-45.368964,"63.88,47.11"
2024-05-28_13-26-45.401774,"42.24,71.37"
2024-05-28_13-26-45.434559,"59.49,75.75"
2024-05-28_13-26-45.467363,"56.89,67.65"
2024-05-28_13-26-45.499956,"61.29,72.19"
2024-05-28_13-26-45.532696,"56.96,69.83"
2024-05-28_13-26-45.561547,"79.53,82.22"
2024-05-28_13-26-45.594329,"81.78,77.96"
2024-05-28_13-26-45.627041,"68.38,64.95"
2024-05-28_13-26-45.659819,"84.96,39.29"
2024-05-28_13-26-45.692552,"80.59,68.79"
2024-05-28_13-26-45.725415,"51.29,62.54"
2024-05-28_13-26-45.758030,"51.96,71.60"
2024-05-28_13-26-45.786776,"59.52,66.20"
2024-05-28_13-26-45.819531,"68.50,71.58"
2024-05-28_13-26-45.852288,"61.53,69.88"
2024-05-28_13-26-45.885058,"52.15,83.55"
2024-05-28_13-26-45.917894,"91.30,72.86"
2024-05-28_13-26-45.950593,"68.59,68.33"
2024-05-28_13-26-45.983322,"86.64,58.00"
2024-05-28_13-26-46.012064,"88.40,55.02"
2024-05-28_13-26-46.044813,"74.93,53.64"
2024-05-28_13-26-46.077640,"52.26,72.88"
2024-05-28_13-26-46.110345,"59.93,65.46"
2024-05-28_13-26-46.143114,"48.56,70.54"
2024-05-28_13-26-46.175910,"66.84,79.70"
2024-05-28_13-26-46.209175,"65.42,60.28"
2024-05-28_13-26-46.237434,"53.46,79.58"
2024-05-28_13-26-46.270122,"85.93,64.32"
2024-05-28_13-26-46.302834,"80.88,62.57"
2024-05-28_13-26-46.335687,"86.13,41.24"
2024-05-28_13-26-46.368412,"63.90,60.38"
2024-05-28_13-26-46.401113,"57.83,58.61"
2024-05-28_13-26-46.433859,"57.05,65.19"
2024-05-28_13-26-46.462585,"58.56,76.68"
2024-05-28_13-26-46.495392,"64.22,72.30"
2024-05-28_13-26-46.528165,"56.55,68.93"
2024-05-28_13-26-46.560909,"61.77,85.57"
2024-05-28_13-26-46.593658,"88.86,64.06"
2024-05-28_13-26-46.626451,"67.85,77.40"
2024-05-28_13-26-46.659141,"85.00,42.67"
2024-05-28_13-26-46.687870,"57.82,69.79"
2024-05-28_13-26-46.720644,"56.65,56.75"
2024-05-28_13-26-46.753444,"56.64,74.82"
2024-05-28_13-26-46.786155,"60.08,67.24"
2024-05-28_13-26-46.818955,"51.97,71.27"
2024-05-28_13-26-46.851700,"68.59,68.81"
2024-05-28_13-26-46.884427,"50.45,85.59"
2024-05-28_13-26-46.913169,"85.78,84.76"
2024-05-28_13-26-46.945905,"61.17,69.10"
2024-05-28_13-26-46.978655,"82.11,60.70"
2024-05-28_13-26-47.011478,"102.21,49.05"
2024-05-28_13-26-47.044229,"57.83,78.40"
2024-05-28_13-26-47.076978,"53.80,74.79"
2024-05-28_13-26-47.109681,"56.03,64.75"
2024-05-28_13-26-47.138403,"53.56,70.77"
2024-05-28_13-26-47.171204,"80.13,67.71"
2024-05-28_13-26-47.203959,"64.90,73.88"
2024-05-28_13-26-47.236715,"52.85,82.43"
2024-05-28_13-26-47.269506,"83.65,65.65"
2024-05-28_13-26-47.302258,"75.77,58.24"
2024-05-28_13-26-47.334985,"90.20,47.88"
2024-05-28_13-26-47.367644,"79.08,60.40"
2024-05-28_13-26-47.396458,"64.16,59.94"
2024-05-28_13-26-47.429229,"56.38,64.80"
2024-05-28_13-26-47.462030,"48.41,69.44"
2024-05-28_13-26-47.494764,"60.27,77.61"
2024-05-28_13-26-47.527511,"66.33,69.58"
2024-05-28_13-26-47.560237,"50.19,73.95"
2024-05-28_13-26-47.592985,"79.73,73.03"
2024-05-28_13-26-47.621715,"72.14,79.98"
2024-05-28_13-26-47.654515,"78.99,61.73"
2024-05-28_13-26-47.687290,"94.12,43.68"
2024-05-28_13-26-47.720061,"70.00,67.34"
2024-05-28_13-26-47.752809,"51.78,65.71"
2024-05-28_13-26-47.785528,"53.45,75.27"
2024-05-28_13-26-47.818254,"52.48,72.15"
2024-05-28_13-26-47.847011,"65.97,67.90"
2024-05-28_13-26-47.879787,"55.14,72.86"
2024-05-28_13-26-47.912572,"68.90,77.09"
2024-05-28_13-26-47.945311,"80.65,75.25"
2024-05-28_13-26-47.978080,"75.03,76.09"
2024-05-28_13-26-48.010786,"85.27,47.05"
2024-05-28_13-26-48.043549,"73.55,35.09"
2024-05-28_13-26-48.072355,"76.82,63.33"
2024-05-28_13-26-48.105098,"49.81,64.91"
2024-05-28_13-26-48.137823,"53.31,71.14"
2024-05-28_13-26-48.170555,"61.39,66.41"
2024-05-28_13-26-48.203321,"80.15,76.64"
2024-05-28_13-26-48.236087,"50.87,80.66"
2024-05-28_13-26-48.268802,"77.05,84.67"
2024-05-28_13-26-48.297576,"75.93,77.24"
2024-05-28_13-26-48.330328,"79.80,67.57"
2024-05-28_13-26-48.363118,"95.05,40.64"
2024-05-28_13-26-48.395845,"73.62,55.95"
2024-05-28_13-26-48.428664,"62.78,65.83"
2024-05-28_13-26-48.461443,"50.67,71.02"
2024-05-28_13-26-48.494119,"60.36,65.55"
2024-05-28_13-26-48.522842,"69.78,77.52"
2024-05-28_13-26-48.555601,"54.96,73.52"
2024-05-28_13-26-48.588364,"53.18,79.68"
2024-05-28_13-26-48.621127,"82.67,68.79"
2024-05-28_13-26-48.653897,"75.96,70.59"
2024-05-28_13-26-48.686696,"79.17,61.58"
2024-05-28_13-26-48.719427,"90.67,41.50"
2024-05-28_13-26-48.748080,"64.54,64.36"
2024-05-28_13-26-48.780897,"60.72,71.70"
2024-05-28_13-26-48.813658,"58.59,75.21"
2024-05-28_13-26-48.846549,"58.76,67.88"
2024-05-28_13-26-48.879178,"65.46,71.55"
2024-05-28_13-26-48.911881,"59.46,69.59"
2024-05-28_13-26-48.944650,"66.78,82.41"
2024-05-28_13-26-48.973370,"86.29,78.76"
2024-05-28_13-26-49.006128,"64.97,66.27"
2024-05-28_13-26-49.038947,"84.02,60.48"
2024-05-28_13-26-49.071687,"86.33,59.86"
2024-05-28_13-26-49.104465,"63.63,49.31"
2024-05-28_13-26-49.137198,"53.21,73.32"
2024-05-28_13-26-49.169922,"60.87,65.11"
2024-05-28_13-26-49.198657,"48.27,75.29"
2024-05-28_13-26-49.231455,"74.84,68.32"
2024-05-28_13-26-49.264227,"48.08,80.40"
2024-05-28_13-26-49.296956,"92.35,77.92"
2024-05-28_13-26-49.329713,"67.63,72.43"
2024-05-28_13-26-49.362505,"79.83,57.55"
2024-05-28_13-26-49.395225,"94.84,47.16"
2024-05-28_13-26-49.423940,"60.36,64.89"
2024-05-28_13-26-49.456773,"58.53,59.67"
2024-05-28_13-26-49.489522,"58.48,65.14"
2024-05-28_13-26-49.522285,"48.41,69.68"
2024-05-28_13-26-49.555067,"72.61,77.94"
2024-05-28_13-26-49.587793,"56.73,69.74"
2024-05-28_13-26-49.620473,"52.38,74.62"
2024-05-28_13-26-49.653208,"106.63,74.63"
2024-05-28_13-26-49.681959,"73.81,77.85"
2024-05-28_13-26-49.714718,"83.16,41.83"
2024-05-28_13-26-49.747543,"66.54,43.17"
2024-05-28_13-26-49.780252,"73.18,64.32"
2024-05-28_13-26-49.813066,"55.41,64.85"
2024-05-28_13-26-49.845771,"56.77,75.05"
2024-05-28_13-26-49.878462,"51.94,72.69"
2024-05-28_13-26-49.907275,"75.86,67.73"
2024-05-28_13-26-49.940009,"52.92,73.25"
2024-05-28_13-26-49.972769,"68.45,74.96"
2024-05-28_13-26-50.005617,"76.22,79.07"
2024-05-28_13-26-50.038399,"77.66,61.46"
2024-05-28_13-26-50.071050,"94.59,46.55"
2024-05-28_13-26-50.103721,"67.00,43.68"
2024-05-28_13-26-50.132515,"59.63,62.58"
2024-05-28_13-26-50.165316,"53.29,66.13"
2024-05-28_13-26-50.198051,"54.41,73.79"
2024-05-28_13-26-50.230896,"70.82,67.12"
2024-05-28_13-26-50.263627,"54.45,72.71"
2024-05-28_13-26-50.296498,"51.25,81.56"
2024-05-28_13-26-50.329024,"92.70,70.94"
2024-05-28_13-26-50.357849,"73.28,75.40"
2024-05-28_13-26-50.390600,"84.69,66.71"
2024-05-28_13-26-50.423367,"90.47,39.53"
2024-05-28_13-26-50.456078,"84.64,59.37"
2024-05-28_13-26-50.488928,"49.53,64.92"
2024-05-28_13-26-50.521580,"50.51,70.55"
2024-05-28_13-26-50.554282,"60.75,66.04"
2024-05-28_13-26-50.583127,"66.54,77.96"
2024-05-28_13-26-50.615877,"51.08,73.87"
2024-05-28_13-26-50.648629,"53.17,77.80"
2024-05-28_13-26-50.681569,"82.66,68.59"
2024-05-28_13-26-50.714162,"76.10,70.68"
2024-05-28_13-26-50.746928,"80.58,61.41"
2024-05-28_13-26-50.779601,"80.20,66.72"
2024-05-28_13-26-50.808362,"63.17,46.54"
2024-05-28_13-26-50.841150,"53.69,72.17"
2024-05-28_13-26-50.873863,"59.11,74.94"
2024-05-28_13-26-50.906679,"58.33,67.79"
2024-05-28_13-26-50.939499,"64.13,71.74"
2024-05-28_13-26-50.972157,"59.22,70.63"
2024-05-28_13-26-51.005021,"67.71,81.57"
2024-05-28_13-26-51.033642,"99.11,79.16"
2024-05-28_13-26-51.066518,"65.55,66.45"
2024-05-28_13-26-51.099176,"84.76,39.31"
2024-05-28_13-26-51.132006,"87.95,45.80"
2024-05-28_13-26-51.164714,"62.43,53.45"
2024-05-28_13-26-51.197524,"50.85,76.62"
2024-05-28_13-26-51.230130,"56.67,64.13"
2024-05-28_13-26-51.259075,"53.96,72.41"
2024-05-28_13-26-51.291699,"78.25,68.48"
2024-05-28_13-26-51.324684,"47.86,80.13"
2024-05-28_13-26-51.357249,"69.28,77.73"
2024-05-28_13-26-51.390090,"81.10,67.35"
2024-05-28_13-26-51.422742,"75.37,73.83"
2024-05-28_13-26-51.455473,"90.71,47.95"
2024-05-28_13-26-51.484199,"65.58,62.77"
2024-05-28_13-26-51.516922,"63.68,60.46"
2024-05-28_13-26-51.549753,"56.40,65.12"
2024-05-28_13-26-51.582513,"46.63,69.41"
2024-05-28_13-26-51.615269,"62.79,76.92"
2024-05-28_13-26-51.648082,"66.42,68.88"
2024-05-28_13-26-51.680697,"50.06,73.95"
2024-05-28_13-26-51.709476,"74.18,72.63"
2024-05-28_13-26-51.742331,"74.69,81.77"
2024-05-28_13-26-51.775017,"77.82,61.79"
2024-05-28_13-26-51.807734,"91.80,45.31"
2024-05-28_13-26-51.840619,"75.66,58.30"
2024-05-28_13-26-51.873277,"71.66,47.93"
2024-05-28_13-26-51.905992,"54.60,76.58"
2024-05-28_13-26-51.934770,"51.41,71.10"
2024-05-28_13-26-51.967516,"72.18,66.44"
2024-05-28_13-26-52.000475,"60.44,72.30"
2024-05-28_13-26-52.033060,"51.09,70.95"
2024-05-28_13-26-52.065782,"74.45,81.54"
2024-05-28_13-26-52.098599,"73.35,79.02"
2024-05-28_13-26-52.131444,"74.91,49.26"
2024-05-28_13-26-52.160031,"88.04,73.00"
2024-05-28_13-26-52.192742,"50.93,73.58"
2024-05-28_13-26-52.225614,"67.54,65.91"
2024-05-28_13-26-52.258318,"49.99,70.56"
2024-05-28_13-26-52.291089,"61.54,65.93"
2024-05-28_13-26-52.323827,"64.73,71.18"
2024-05-28_13-26-52.356525,"64.84,78.21"
2024-05-28_13-26-52.385316,"49.58,71.29"
2024-05-28_13-26-52.418115,"69.64,77.55"
2024-05-28_13-26-52.450802,"84.61,64.37"
2024-05-28_13-26-52.483670,"78.95,77.48"
2024-05-28_13-26-52.516400,"84.85,40.69"
2024-05-28_13-26-52.549181,"79.64,42.65"
2024-05-28_13-26-52.581845,"75.54,67.92"
2024-05-28_13-26-52.610578,"53.49,65.25"
2024-05-28_13-26-52.643316,"55.78,75.80"
2024-05-28_13-26-52.676132,"51.90,72.12"
2024-05-28_13-26-52.708887,"70.41,67.61"
2024-05-28_13-26-52.741687,"54.84,75.81"
2024-05-28_13-26-52.774425,"93.10,71.52"
2024-05-28_13-26-52.807145,"74.92,79.36"
2024-05-28_13-26-52.835867,"77.44,61.89"
2024-05-28_13-26-52.868573,"91.59,47.71"
2024-05-28_13-26-52.901408,"83.58,54.07"
2024-05-28_13-26-52.934132,"67.85,62.83"
2024-05-28_13-26-52.966977,"53.37,65.71"
2024-05-28_13-26-52.999654,"51.85,70.52"
2024-05-28_13-26-53.032452,"60.55,68.06"
2024-05-28_13-26-53.065167,"63.95,71.71"
2024-05-28_13-26-53.093847,"50.81,79.89"
2024-05-28_13-26-53.126710,"74.87,71.57"
2024-05-28_13-26-53.159441,"67.59,75.42"
2024-05-28_13-26-53.201774,"73.66,70.44"
2024-05-28_13-26-53.225109,"90.30,62.08"
2024-05-28_13-26-53.257643,"71.95,61.39"
2024-05-28_13-26-53.290357,"61.53,64.84"
2024-05-28_13-26-53.319124,"50.86,71.13"
2024-05-28_13-26-53.351976,"61.85,65.92"
2024-05-28_13-26-53.384723,"69.43,76.69"
2024-05-28_13-26-53.417583,"58.32,73.79"
2024-05-28_13-26-53.450321,"52.23,71.45"
2024-05-28_13-26-53.482924,"79.43,76.18"
2024-05-28_13-26-53.515734,"78.57,69.21"
2024-05-28_13-26-53.544429,"75.44,77.54"
2024-05-28_13-26-53.577265,"86.37,41.49"
2024-05-28_13-26-53.609961,"72.98,67.90"
2024-05-28_13-26-53.642765,"55.92,57.45"
2024-05-28_13-26-53.675510,"58.69,75.35"
2024-05-28_13-26-53.708218,"57.44,66.04"
2024-05-28_13-26-53.740914,"53.54,71.83"
2024-05-28_13-26-53.769894,"76.51,69.44"
2024-05-28_13-26-53.802507,"48.38,72.36"
2024-05-28_13-26-53.835282,"82.18,83.87"
2024-05-28_13-26-53.868020,"60.31,72.64"
2024-05-28_13-26-53.900832,"77.62,60.13"
2024-05-28_13-26-53.933515,"98.62,47.37"
2024-05-28_13-26-53.966146,"63.02,63.71"
2024-05-28_13-26-53.994962,"69.81,60.16"
2024-05-28_13-26-54.027796,"54.80,64.54"
2024-05-28_13-26-54.060509,"55.04,71.09"
2024-05-28_13-26-54.093277,"59.62,65.83"
2024-05-28_13-26-54.126060,"63.03,78.34"
2024-05-28_13-26-54.158828,"50.14,74.52"
2024-05-28_13-26-54.191462,"85.86,86.33"
2024-05-28_13-26-54.220305,"61.54,77.86"
2024-05-28_13-26-54.253034,"84.91,68.35"
2024-05-28_13-26-54.288190,"92.48,40.19"
2024-05-28_13-26-54.322641,"73.44,54.65"
2024-05-28_13-26-54.352794,"65.93,66.41"
2024-05-28_13-26-54.384432,"43.67,69.56"
2024-05-28_13-26-54.417489,"60.81,74.99"
2024-05-28_13-26-54.449160,"68.51,68.10"
2024-05-28_13-26-54.478394,"56.73,74.18"
2024-05-28_13-26-54.511097,"55.52,71.17"
2024-05-28_13-26-54.543835,"90.15,83.97"
2024-05-28_13-26-54.576684,"76.61,61.00"
2024-05-28_13-26-54.609362,"76.19,45.10"
2024-05-28_13-26-54.642085,"88.56,39.44"
2024-05-28_13-26-54.670835,"81.57,63.34"
2024-05-28_13-26-54.703658,"52.27,62.14"
2024-05-28_13-26-54.736349,"51.30,71.32"
2024-05-28_13-26-54.769138,"57.98,65.41"
2024-05-28_13-26-54.801942,"69.27,72.70"
2024-05-28_13-26-54.834665,"62.89,69.18"
2024-05-28_13-26-54.867340,"51.48,88.53"
2024-05-28_13-26-54.896286,"83.44,69.42"
2024-05-28_13-26-54.928864,"65.85,69.37"
2024-05-28_13-26-54.961639,"82.30,57.83"
2024-05-28_13-26-54.994347,"97.47,46.36"
2024-05-28_13-26-55.027173,"58.63,53.89"
2024-05-28_13-26-55.059870,"62.61,75.15"
2024-05-28_13-26-55.092594,"58.66,65.70"
2024-05-28_13-26-55.121451,"49.12,70.07"
2024-05-28_13-26-55.154118,"72.73,76.94"
2024-05-28_13-26-55.190521,"54.84,71.67"
2024-05-28_13-26-55.219666,"81.18,68.79"
2024-05-28_13-26-55.252399,"84.17,66.52"
2024-05-28_13-26-55.285190,"72.59,79.72"
2024-05-28_13-26-55.317855,"80.58,61.81"
2024-05-28_13-26-55.346635,"83.13,43.48"
2024-05-28_13-26-55.379404,"70.61,65.42"
2024-05-28_13-26-55.412125,"66.78,66.66"
2024-05-28_13-26-55.444896,"54.09,75.36"
2024-05-28_13-26-55.477685,"52.97,72.52"
2024-05-28_13-26-55.510462,"70.62,67.36"
2024-05-28_13-26-55.543110,"60.31,72.77"
2024-05-28_13-26-55.572316,"51.34,70.90"
2024-05-28_13-26-55.604778,"83.57,78.63"
2024-05-28_13-26-55.637517,"72.68,77.26"
2024-05-28_13-26-55.670189,"76.70,48.59"
2024-05-28_13-26-55.703037,"91.70,35.44"
2024-05-28_13-26-55.735721,"65.04,70.35"
2024-05-28_13-26-55.768418,"66.57,64.32"
2024-05-28_13-26-55.801097,"51.41,71.45"
2024-05-28_13-26-55.833849,"62.27,66.56"
2024-05-28_13-26-55.863214,"63.59,69.97"
2024-05-28_13-26-55.895524,"60.81,79.08"
2024-05-28_13-26-55.928698,"49.68,72.14"
2024-05-28_13-26-55.961042,"68.86,76.67"
2024-05-28_13-26-55.993678,"83.26,67.19"
2024-05-28_13-26-56.026383,"80.43,62.56"
2024-05-28_13-26-56.055166,"85.70,41.21"
2024-05-28_13-26-56.087954,"79.91,66.60"
2024-05-28_13-26-56.120702,"63.83,59.89"
2024-05-28_13-26-56.153428,"56.11,64.73"
2024-05-28_13-26-56.186163,"57.63,75.24"
2024-05-28_13-26-56.218920,"80.79,76.74"
2024-05-28_13-26-56.251630,"68.45,66.84"
2024-05-28_13-26-56.280379,"54.08,73.57"
2024-05-28_13-26-56.313160,"68.91,74.44"
2024-05-28_13-26-56.345940,"76.15,77.40"
2024-05-28_13-26-56.378669,"75.67,76.83"
2024-05-28_13-26-56.411488,"89.86,48.59"
2024-05-28_13-26-56.444196,"85.12,33.60"
2024-05-28_13-26-56.476889,"77.03,77.83"
2024-05-28_13-26-56.505664,"52.99,65.72"
2024-05-28_13-26-56.538435,"52.45,70.43"
2024-05-28_13-26-56.571221,"61.85,66.14"
2024-05-28_13-26-56.603988,"65.37,71.05"
2024-05-28_13-26-56.636709,"49.91,80.64"
2024-05-28_13-26-56.669500,"52.75,72.86"
2024-05-28_13-26-56.702181,"90.80,74.82"
2024-05-28_13-26-56.730992,"71.46,69.10"
2024-05-28_13-26-56.763707,"91.28,40.37"
2024-05-28_13-26-56.796505,"89.99,59.24"
2024-05-28_13-26-56.829443,"60.75,44.77"
2024-05-28_13-26-56.862115,"50.04,71.77"
2024-05-28_13-26-56.894750,"59.57,64.62"
2024-05-28_13-26-56.927500,"56.47,75.64"
2024-05-28_13-26-56.956480,"64.09,73.84"
2024-05-28_13-26-56.989086,"58.14,69.54"
2024-05-28_13-26-57.021837,"57.12,78.05"
2024-05-28_13-26-57.054633,"92.91,66.07"
2024-05-28_13-26-57.087354,"60.97,78.78"
2024-05-28_13-26-57.120069,"80.67,61.67"
2024-05-28_13-26-57.152764,"91.06,45.82"
2024-05-28_13-26-57.181540,"77.71,54.79"
2024-05-28_13-26-57.214301,"52.43,76.83"
2024-05-28_13-26-57.247041,"55.49,68.22"
2024-05-28_13-26-57.279875,"54.53,71.75"
2024-05-28_13-26-57.312657,"71.08,67.29"
2024-05-28_13-26-57.345355,"53.41,73.01"
2024-05-28_13-26-57.378058,"50.88,81.46"
2024-05-28_13-26-57.406801,"83.10,71.14"
2024-05-28_13-26-57.439689,"73.30,76.46"
2024-05-28_13-26-57.472364,"81.95,67.55"
2024-05-28_13-26-57.505110,"98.14,40.22"
2024-05-28_13-26-57.537885,"72.26,79.41"
2024-05-28_13-26-57.570651,"59.71,66.15"
2024-05-28_13-26-57.603367,"50.68,71.09"
2024-05-28_13-26-57.632112,"61.21,65.82"
2024-05-28_13-26-57.664860,"68.78,77.51"
2024-05-28_13-26-57.700641,"55.79,73.46"
2024-05-28_13-26-57.730637,"51.77,69.92"
2024-05-28_13-26-57.763185,"79.02,77.81"
2024-05-28_13-26-57.795928,"79.81,66.76"
2024-05-28_13-26-57.828605,"71.14,62.19"
2024-05-28_13-26-57.857366,"87.19,41.95"
2024-05-28_13-26-57.890148,"57.72,69.11"
2024-05-28_13-26-57.922907,"68.39,57.26"
2024-05-28_13-26-57.955698,"54.66,75.10"
2024-05-28_13-26-57.988407,"58.16,66.90"
2024-05-28_13-26-58.021273,"53.09,71.34"
2024-05-28_13-26-58.053948,"72.86,69.50"
2024-05-28_13-26-58.082654,"48.70,73.39"
2024-05-28_13-26-58.115440,"68.91,83.92"
2024-05-28_13-26-58.148196,"76.50,68.35"
2024-05-28_13-26-58.180976,"78.26,59.81"
2024-05-28_13-26-58.213722,"94.92,47.53"
2024-05-28_13-26-58.246503,"61.27,64.01"
2024-05-28_13-26-58.279255,"51.30,75.25"
2024-05-28_13-26-58.307979,"56.48,64.49"
2024-05-28_13-26-58.340713,"52.51,70.58"
2024-05-28_13-26-58.373499,"62.82,66.82"
2024-05-28_13-26-58.406209,"66.06,78.12"
2024-05-28_13-26-58.438984,"50.16,73.66"
2024-05-28_13-26-58.471779,"80.71,73.41"
2024-05-28_13-26-58.504521,"74.37,77.08"
2024-05-28_13-26-58.533200,"79.17,67.98"
2024-05-28_13-26-58.566043,"91.12,42.33"
2024-05-28_13-26-58.598748,"75.68,61.76"
2024-05-28_13-26-58.631526,"71.03,47.56"
2024-05-28_13-26-58.664313,"44.36,69.99"
2024-05-28_13-26-58.697368,"61.18,75.88"
2024-05-28_13-26-58.729947,"55.33,66.79"
2024-05-28_13-26-58.762463,"63.87,72.34"
2024-05-28_13-26-58.791261,"56.92,69.97"
2024-05-28_13-26-58.824037,"66.66,94.22"
2024-05-28_13-26-58.856800,"85.16,78.70"
2024-05-28_13-26-58.889534,"64.07,67.64"
2024-05-28_13-26-58.922285,"81.25,39.15"
2024-05-28_13-26-58.955100,"94.78,53.53"
2024-05-28_13-26-58.987711,"73.68,53.39"
2024-05-28_13-26-59.016628,"50.57,73.17"
2024-05-28_13-26-59.049363,"56.49,64.73"
2024-05-28_13-26-59.082122,"54.65,70.57"
2024-05-28_13-26-59.115010,"67.17,68.61"
2024-05-28_13-26-59.147653,"51.54,80.08"
2024-05-28_13-26-59.180335,"52.12,73.61"
2024-05-28_13-26-59.213019,"90.84,75.86"
2024-05-28_13-26-59.241838,"67.67,71.61"
2024-05-28_13-26-59.274551,"72.86,69.74"
2024-05-28_13-26-59.307327,"76.48,41.89"
2024-05-28_13-26-59.340137,"82.85,59.15"
2024-05-28_13-26-59.372870,"53.58,65.24"
2024-05-28_13-26-59.405619,"45.01,70.09"
2024-05-28_13-26-59.438286,"62.20,76.02"
2024-05-28_13-26-59.467078,"64.13,68.63"
2024-05-28_13-26-59.500015,"51.84,74.02"
2024-05-28_13-26-59.532678,"56.36,70.37"
2024-05-28_13-26-59.565389,"96.73,84.39"
2024-05-28_13-26-59.598161,"75.39,76.22"
2024-05-28_13-26-59.630879,"75.85,64.77"
2024-05-28_13-26-59.663599,"86.18,38.70"
2024-05-28_13-26-59.692336,"91.56,65.36"
2024-05-28_13-26-59.725110,"51.47,63.13"
2024-05-28_13-26-59.757876,"50.99,71.57"
2024-05-28_13-26-59.790746,"56.99,64.90"
2024-05-28_13-26-59.823415,"54.44,72.37"
2024-05-28_13-26-59.856192,"76.06,68.29"
2024-05-28_13-26-59.888840,"47.53,79.87"
2024-05-28_13-26-59.917662,"69.32,80.04"
2024-05-28_13-26-59.950407,"80.94,66.89"
2024-05-28_13-26-59.983159,"75.19,73.93"
2024-05-28_13-27-00.015966,"90.55,47.67"
2024-05-28_13-27-00.048743,"67.03,39.67"
2024-05-28_13-27-00.081436,"75.18,73.81"
2024-05-28_13-27-00.114148,"55.54,65.53"
2024-05-28_13-27-00.142989,"47.51,69.88"
2024-05-28_13-27-00.175760,"61.02,75.63"
2024-05-28_13-27-00.208443,"78.13,69.98"
2024-05-28_13-27-00.241234,"69.65,74.83"
2024-05-28_13-27-00.273967,"64.95,88.11"
2024-05-28_13-27-00.306712,"85.05,85.06"
2024-05-28_13-27-00.339416,"77.18,76.46"
2024-05-28_13-27-00.368202,"77.39,45.26"
2024-05-28_13-27-00.400939,"88.23,38.78"
2024-05-28_13-27-00.433798,"80.68,65.35"
2024-05-28_13-27-00.466481,"54.89,62.58"
2024-05-28_13-27-00.499244,"50.82,71.07"
2024-05-28_13-27-00.532024,"60.74,66.36"
2024-05-28_13-27-00.564707,"53.02,71.28"
2024-05-28_13-27-00.593445,"68.70,67.91"
2024-05-28_13-27-00.626330,"50.00,91.52"
2024-05-28_13-27-00.659007,"90.16,78.35"
2024-05-28_13-27-00.691745,"80.32,70.45"
2024-05-28_13-27-00.724585,"80.28,74.11"
2024-05-28_13-27-00.757312,"94.43,47.62"
2024-05-28_13-27-00.789968,"77.28,58.22"
2024-05-28_13-27-00.818760,"67.76,60.68"
2024-05-28_13-27-00.851497,"59.41,66.11"
2024-05-28_13-27-00.884253,"47.64,69.17"
2024-05-28_13-27-00.916999,"60.25,75.95"
2024-05-28_13-27-00.949807,"67.08,69.47"
2024-05-28_13-27-00.982553,"49.62,74.47"
2024-05-28_13-27-01.015199,"83.98,72.87"
2024-05-28_13-27-01.043964,"72.88,82.88"
2024-05-28_13-27-01.076764,"77.89,61.41"
2024-05-28_13-27-01.109481,"88.59,44.07"
2024-05-28_13-27-01.142286,"75.29,60.64"
2024-05-28_13-27-01.175083,"70.47,47.02"
2024-05-28_13-27-01.207835,"52.19,75.98"
2024-05-28_13-27-01.240570,"51.74,70.86"
2024-05-28_13-27-01.273248,"59.01,68.20"
2024-05-28_13-27-01.302040,"83.45,77.11"
2024-05-28_13-27-01.334852,"52.15,69.31"
2024-05-28_13-27-01.367592,"78.94,83.08"
2024-05-28_13-27-01.400361,"76.55,78.20"
2024-05-28_13-27-01.433126,"72.28,66.96"
2024-05-28_13-27-01.465845,"87.47,34.71"
2024-05-28_13-27-01.498536,"78.29,58.71"
2024-05-28_13-27-01.527338,"74.27,50.12"
2024-05-28_13-27-01.560065,"49.63,72.26"
2024-05-28_13-27-01.592882,"61.29,65.88"
2024-05-28_13-27-01.625658,"66.53,69.71"
2024-05-28_13-27-01.658420,"65.78,78.59"
2024-05-28_13-27-01.691128,"51.52,71.49"
2024-05-28_13-27-01.723831,"52.18,72.99"
2024-05-28_13-27-01.752601,"104.01,75.17"
2024-05-28_13-27-01.785346,"73.67,78.16"
2024-05-28_13-27-01.818130,"81.10,42.08"
2024-05-28_13-27-01.850968,"84.85,42.57"
2024-05-28_13-27-01.883673,"71.03,60.47"
2024-05-28_13-27-01.916382,"53.25,65.84"
2024-05-28_13-27-01.949089,"55.00,75.27"
2024-05-28_13-27-01.977912,"53.04,71.74"
2024-05-28_13-27-02.010612,"69.17,67.49"
2024-05-28_13-27-02.043390,"60.22,72.57"
2024-05-28_13-27-02.076156,"51.62,71.52"
2024-05-28_13-27-02.108923,"84.15,78.63"
2024-05-28_13-27-02.141678,"72.86,77.25"
2024-05-28_13-27-02.174371,"75.45,48.95"
2024-05-28_13-27-02.203146,"90.22,35.32"
2024-05-28_13-27-02.235892,"79.50,62.51"
2024-05-28_13-27-02.268680,"75.88,49.02"
2024-05-28_13-27-02.301463,"50.69,75.18"
2024-05-28_13-27-02.334222,"60.36,65.02"
2024-05-28_13-27-02.366949,"48.73,70.75"
2024-05-28_13-27-02.399664,"67.30,78.18"
2024-05-28_13-27-02.428430,"49.29,70.69"
2024-05-28_13-27-02.461170,"53.13,83.64"
2024-05-28_13-27-02.493938,"91.26,78.95"
2024-05-28_13-27-02.526723,"76.38,77.66"
2024-05-28_13-27-02.559491,"83.12,41.91"
2024-05-28_13-27-02.592261,"77.43,43.45"
2024-05-28_13-27-02.624974,"83.74,59.80"
2024-05-28_13-27-02.653688,"54.47,64.69"
2024-05-28_13-27-02.686449,"57.98,76.22"
2024-05-28_13-27-02.719238,"53.04,71.09"
2024-05-28_13-27-02.752004,"67.94,66.50"
2024-05-28_13-27-02.785007,"58.04,72.77"
2024-05-28_13-27-02.817558,"51.15,70.14"
2024-05-28_13-27-02.850213,"103.63,80.04"
2024-05-28_13-27-02.878973,"72.82,76.99"
2024-05-28_13-27-02.911804,"79.00,67.89"
2024-05-28_13-27-02.944536,"91.38,34.79"
2024-05-28_13-27-02.977282,"81.00,67.64"
2024-05-28_13-27-03.010030,"53.34,64.52"
2024-05-28_13-27-03.042835,"50.78,70.91"
2024-05-28_13-27-03.075696,"61.70,65.80"
2024-05-28_13-27-03.104324,"65.17,70.25"
2024-05-28_13-27-03.137027,"62.05,78.70"
2024-05-28_13-27-03.169801,"49.32,71.07"
2024-05-28_13-27-03.202585,"69.38,79.13"
2024-05-28_13-27-03.235318,"85.53,66.94"
2024-05-28_13-27-03.268071,"75.93,77.38"
2024-05-28_13-27-03.300802,"59.25,76.05"
2024-05-28_13-27-03.329503,"62.36,48.29"
2024-05-28_13-27-03.362288,"81.98,58.38"
2024-05-28_13-27-03.395054,"54.51,64.88"
2024-05-28_13-27-03.427975,"54.00,76.03"
2024-05-28_13-27-03.460629,"51.40,71.28"
2024-05-28_13-27-03.493429,"64.22,67.33"
2024-05-28_13-27-03.526074,"55.94,73.97"
2024-05-28_13-27-03.554798,"51.83,71.27"
2024-05-28_13-27-03.587571,"79.57,84.92"
2024-05-28_13-27-03.620351,"73.49,61.72"
2024-05-28_13-27-03.653084,"80.63,65.87"
2024-05-28_13-27-03.685889,"94.34,34.64"
2024-05-28_13-27-03.718628,"82.63,64.61"
2024-05-28_13-27-03.751372,"51.57,64.03"
2024-05-28_13-27-03.784038,"52.12,70.92"
2024-05-28_13-27-03.812849,"61.39,65.61"
2024-05-28_13-27-03.845587,"61.78,72.25"
2024-05-28_13-27-03.878370,"58.79,78.90"
2024-05-28_13-27-03.911161,"49.38,70.28"
2024-05-28_13-27-03.943922,"82.57,77.70"
2024-05-28_13-27-03.976637,"82.72,71.24"
2024-05-28_13-27-04.009365,"79.45,62.03"
2024-05-28_13-27-04.038095,"86.34,41.12"
2024-05-28_13-27-04.070866,"67.74,42.91"
2024-05-28_13-27-04.103651,"72.50,56.04"
2024-05-28_13-27-04.136398,"54.39,64.99"
2024-05-28_13-27-04.169180,"56.19,75.90"
2024-05-28_13-27-04.201904,"52.02,71.52"
2024-05-28_13-27-04.234595,"77.85,68.67"
2024-05-28_13-27-04.263385,"55.21,73.64"
2024-05-28_13-27-04.296158,"52.41,81.31"
2024-05-28_13-27-04.328881,"75.32,90.78"
2024-05-28_13-27-04.361769,"68.03,77.38"
2024-05-28_13-27-04.394553,"83.88,66.72"
2024-05-28_13-27-04.427194,"94.48,34.81"
2024-05-28_13-27-04.459842,"81.72,62.37"
2024-05-28_13-27-04.488658,"50.29,63.65"
2024-05-28_13-27-04.521475,"51.89,70.76"
2024-05-28_13-27-04.554224,"62.46,66.38"
2024-05-28_13-27-04.587015,"62.48,70.19"
2024-05-28_13-27-04.619737,"61.47,78.58"
2024-05-28_13-27-04.652543,"50.19,72.21"
2024-05-28_13-27-04.685188,"69.06,78.93"
2024-05-28_13-27-04.713939,"85.07,65.52"
2024-05-28_13-27-04.746739,"78.91,77.50"
2024-05-28_13-27-04.779510,"83.76,41.06"
2024-05-28_13-27-04.812269,"79.60,42.24"
2024-05-28_13-27-04.845111,"71.32,53.38"
2024-05-28_13-27-04.877698,"55.87,65.60"
2024-05-28_13-27-04.910469,"55.33,74.81"
2024-05-28_13-27-04.939204,"53.59,71.36"
2024-05-28_13-27-04.972029,"66.93,68.03"
2024-05-28_13-27-05.004757,"56.91,72.87"
2024-05-28_13-27-05.037481,"69.34,79.25"
2024-05-28_13-27-05.070301,"82.91,86.40"
2024-05-28_13-27-05.103019,"74.92,76.43"
2024-05-28_13-27-05.135723,"82.37,48.47"
2024-05-28_13-27-05.164502,"97.00,35.59"
2024-05-28_13-27-05.197366,"82.37,63.56"
2024-05-28_13-27-05.230053,"51.28,64.12"
2024-05-28_13-27-05.262796,"53.81,71.06"
2024-05-28_13-27-05.295590,"61.74,66.85"
2024-05-28_13-27-05.328311,"64.04,69.79"
2024-05-28_13-27-05.360990,"82.65,81.61"
2024-05-28_13-27-05.389736,"64.41,63.55"
2024-05-28_13-27-05.422590,"52.78,78.73"
2024-05-28_13-27-05.455309,"86.14,67.35"
2024-05-28_13-27-05.488091,"76.46,62.90"
2024-05-28_13-27-05.520874,"82.67,41.66"
2024-05-28_13-27-05.553586,"77.84,42.90"
2024-05-28_13-27-05.586324,"73.63,58.96"
2024-05-28_13-27-05.615040,"52.80,64.72"
2024-05-28_13-27-05.647830,"55.55,75.29"
2024-05-28_13-27-05.680589,"52.02,72.44"
2024-05-28_13-27-05.713343,"69.27,67.31"
2024-05-28_13-27-05.746097,"59.98,72.59"
2024-05-28_13-27-05.778888,"51.03,71.15"
2024-05-28_13-27-05.811594,"82.92,80.11"
2024-05-28_13-27-05.840297,"72.85,77.02"
2024-05-28_13-27-05.873068,"76.53,48.19"
2024-05-28_13-27-05.905855,"91.69,35.10"
2024-05-28_13-27-05.938629,"79.25,80.57"
2024-05-28_13-27-05.971379,"63.87,65.34"
2024-05-28_13-27-06.004134,"51.99,71.50"
2024-05-28_13-27-06.036845,"62.02,66.42"
2024-05-28_13-27-06.065557,"65.99,69.96"
2024-05-28_13-27-06.098357,"65.59,78.45"
2024-05-28_13-27-06.131114,"54.40,71.65"
2024-05-28_13-27-06.163884,"52.43,82.29"
2024-05-28_13-27-06.196613,"91.45,77.64"
2024-05-28_13-27-06.229431,"73.77,77.86"
2024-05-28_13-27-06.262086,"82.36,41.23"
2024-05-28_13-27-06.290888,"76.59,42.83"
2024-05-28_13-27-06.323645,"84.99,57.42"
2024-05-28_13-27-06.356397,"52.85,64.99"
2024-05-28_13-27-06.389250,"53.25,77.46"
2024-05-28_13-27-06.421935,"53.68,74.44"
2024-05-28_13-27-06.454684,"65.68,66.62"
2024-05-28_13-27-06.487377,"57.62,74.14"
2024-05-28_13-27-06.516146,"51.42,69.70"
2024-05-28_13-27-06.548921,"102.99,83.66"
2024-05-28_13-27-06.581664,"73.03,77.45"
2024-05-28_13-27-06.614396,"79.83,66.77"
2024-05-28_13-27-06.647225,"90.04,34.70"
2024-05-28_13-27-06.679982,"79.51,71.08"
2024-05-28_13-27-06.712713,"69.16,64.88"
2024-05-28_13-27-06.741429,"51.98,70.87"
2024-05-28_13-27-06.774156,"60.14,65.47"
2024-05-28_13-27-06.806996,"64.96,71.36"
2024-05-28_13-27-06.839710,"64.24,78.57"
2024-05-28_13-27-06.872492,"49.01,70.88"
2024-05-28_13-27-06.905235,"69.52,78.54"
2024-05-28_13-27-06.937959,"86.45,64.73"
2024-05-28_13-27-06.970655,"77.32,77.31"
2024-05-28_13-27-06.999462,"84.64,42.03"
2024-05-28_13-27-07.032208,"67.51,43.16"
2024-05-28_13-27-07.064980,"72.89,52.82"
2024-05-28_13-27-07.097734,"55.68,65.05"
2024-05-28_13-27-07.130512,"58.15,75.99"
2024-05-28_13-27-07.163261,"52.36,71.32"
2024-05-28_13-27-07.195934,"64.87,67.23"
2024-05-28_13-27-07.224717,"57.33,73.29"
2024-05-28_13-27-07.257518,"50.93,70.42"
2024-05-28_13-27-07.290248,"91.07,84.93"
2024-05-28_13-27-07.323054,"74.02,77.07"
2024-05-28_13-27-07.355796,"80.20,48.16"
2024-05-28_13-27-07.388550,"88.15,56.96"
2024-05-28_13-27-07.421252,"59.99,68.97"
2024-05-28_13-27-07.449970,"54.21,63.88"
2024-05-28_13-27-07.482765,"50.61,70.18"
2024-05-28_13-27-07.515501,"62.83,65.92"
2024-05-28_13-27-07.548351,"62.55,71.53"
2024-05-28_13-27-07.581083,"59.10,77.97"
2024-05-28_13-27-07.613790,"50.10,70.65"
2024-05-28_13-27-07.646568,"94.24,77.13"
2024-05-28_13-27-07.675268,"83.00,68.80"
2024-05-28_13-27-07.708057,"81.04,77.42"
2024-05-28_13-27-07.740831,"85.77,40.79"
2024-05-28_13-27-07.773578,"79.85,63.21"
2024-05-28_13-27-07.806383,"62.75,58.82"
2024-05-28_13-27-07.839083,"56.53,65.05"
2024-05-28_13-27-07.871796,"56.59,75.97"
2024-05-28_13-27-07.900602,"52.24,71.95"
2024-05-28_13-27-07.933332,"68.71,67.73"
2024-05-28_13-27-07.966076,"54.16,74.69"
2024-05-28_13-27-07.998848,"68.69,74.94"
2024-05-28_13-27-08.031628,"79.87,73.82"
2024-05-28_13-27-08.064393,"76.11,76.12"
2024-05-28_13-27-08.097079,"87.02,48.36"
2024-05-28_13-27-08.125819,"85.33,34.23"
2024-05-28_13-27-08.158609,"84.76,56.13"
2024-05-28_13-27-08.191354,"52.77,64.75"
2024-05-28_13-27-08.224100,"52.38,70.41"
2024-05-28_13-27-08.256943,"61.67,66.88"
2024-05-28_13-27-08.289681,"60.00,71.12"
2024-05-28_13-27-08.322371,"53.66,78.81"
2024-05-28_13-27-08.351102,"51.93,78.19"
2024-05-28_13-27-08.383882,"95.20,68.11"
2024-05-28_13-27-08.416653,"61.12,69.28"
2024-05-28_13-27-08.449414,"89.75,64.66"
2024-05-28_13-27-08.482178,"79.09,40.46"
2024-05-28_13-27-08.514962,"58.92,58.60"
2024-05-28_13-27-08.547654,"64.08,74.22"
2024-05-28_13-27-08.576370,"59.06,65.43"
2024-05-28_13-27-08.609167,"57.37,75.60"
2024-05-28_13-27-08.641940,"51.49,72.93"
2024-05-28_13-27-08.674700,"66.96,69.23"
2024-05-28_13-27-08.707447,"54.96,75.50"
2024-05-28_13-27-08.740231,"86.38,84.64"
2024-05-28_13-27-08.772937,"59.01,81.14"
2024-05-28_13-27-08.805588,"78.03,61.86"
2024-05-28_13-27-08.834422,"93.43,46.51"
2024-05-28_13-27-08.867206,"71.46,53.86"
2024-05-28_13-27-08.899972,"66.03,62.20"
2024-05-28_13-27-08.932738,"52.56,64.96"
2024-05-28_13-27-08.965527,"52.60,70.95"
2024-05-28_13-27-08.998226,"62.77,67.31"
2024-05-28_13-27-09.030949,"65.03,70.90"
2024-05-28_13-27-09.059655,"51.16,79.52"
2024-05-28_13-27-09.092529,"52.87,73.73"
2024-05-28_13-27-09.125250,"90.95,72.91"
2024-05-28_13-27-09.157986,"70.95,68.85"
2024-05-28_13-27-09.190932,"89.92,61.98"
2024-05-28_13-27-09.223557,"90.45,40.60"
2024-05-28_13-27-09.256166,"59.73,58.16"
2024-05-28_13-27-09.284959,"65.44,74.62"
2024-05-28_13-27-09.317758,"57.62,64.65"
2024-05-28_13-27-09.350486,"56.47,75.56"
2024-05-28_13-27-09.383296,"68.94,72.31"
2024-05-28_13-27-09.416055,"61.30,69.19"
2024-05-28_13-27-09.448806,"81.97,85.99"
2024-05-28_13-27-09.481519,"95.72,76.58"
2024-05-28_13-27-09.510228,"61.51,80.92"
2024-05-28_13-27-09.542975,"78.87,61.95"
2024-05-28_13-27-09.575816,"87.72,47.59"
2024-05-28_13-27-09.608634,"68.80,57.52"
2024-05-28_13-27-09.641316,"68.50,62.26"
2024-05-28_13-27-09.674092,"53.45,65.49"
2024-05-28_13-27-09.706767,"52.30,71.42"
2024-05-28_13-27-09.735481,"60.43,66.42"
2024-05-28_13-27-09.768383,"62.68,71.10"
2024-05-28_13-27-09.801066,"49.41,80.87"
2024-05-28_13-27-09.833829,"89.69,85.14"
2024-05-28_13-27-09.866649,"75.62,77.67"
2024-05-28_13-27-09.899458,"75.36,67.46"
2024-05-28_13-27-09.932038,"91.15,39.85"
2024-05-28_13-27-09.960869,"90.91,59.87"
2024-05-28_13-27-09.993563,"61.56,44.88"
2024-05-28_13-27-10.026315,"49.91,72.07"
2024-05-28_13-27-10.059110,"58.93,65.58"
2024-05-28_13-27-10.091864,"57.25,75.55"
2024-05-28_13-27-10.124703,"67.39,73.90"
2024-05-28_13-27-10.157298,"58.36,69.62"
2024-05-28_13-27-10.186120,"57.01,78.94"
2024-05-28_13-27-10.218901,"93.18,61.77"
2024-05-28_13-27-10.251635,"58.56,80.49"
2024-05-28_13-27-10.284422,"79.19,61.78"
2024-05-28_13-27-10.317142,"95.47,46.62"
2024-05-28_13-27-10.349893,"69.18,55.99"
2024-05-28_13-27-10.382598,"69.12,62.15"
2024-05-28_13-27-10.411356,"53.27,65.50"
2024-05-28_13-27-10.444131,"53.51,71.33"
2024-05-28_13-27-10.476928,"70.95,68.78"
2024-05-28_13-27-10.509774,"59.64,73.77"
2024-05-28_13-27-10.542499,"49.44,80.37"
2024-05-28_13-27-10.575215,"76.43,85.50"
2024-05-28_13-27-10.607918,"76.87,77.84"
2024-05-28_13-27-10.636628,"76.18,68.01"
2024-05-28_13-27-10.669390,"91.79,40.66"
2024-05-28_13-27-10.702134,"89.39,59.99"
2024-05-28_13-27-10.734909,"60.57,46.12"
2024-05-28_13-27-10.767710,"49.61,71.66"
2024-05-28_13-27-10.800445,"59.10,64.93"
2024-05-28_13-27-10.833141,"58.08,76.63"
2024-05-28_13-27-10.861887,"64.39,72.58"
2024-05-28_13-27-10.894681,"56.79,68.89"
2024-05-28_13-27-10.927422,"57.28,78.69"
2024-05-28_13-27-10.960217,"92.93,66.63"
2024-05-28_13-27-10.993472,"58.75,79.32"
2024-05-28_13-27-11.025850,"79.83,62.21"
2024-05-28_13-27-11.058408,"98.29,47.22"
2024-05-28_13-27-11.091129,"69.09,56.67"
2024-05-28_13-27-11.119977,"69.89,62.59"
2024-05-28_13-27-11.152718,"54.60,66.11"
2024-05-28_13-27-11.185528,"52.47,70.21"
2024-05-28_13-27-11.218257,"62.04,66.53"
2024-05-28_13-27-11.251013,"69.04,71.84"
2024-05-28_13-27-11.283661,"49.79,79.30"
2024-05-28_13-27-11.316448,"53.38,73.96"
2024-05-28_13-27-11.345187,"91.36,72.91"
2024-05-28_13-27-11.378012,"70.02,69.07"
2024-05-28_13-27-11.410760,"87.35,42.41"
2024-05-28_13-27-11.443505,"73.97,62.55"
2024-05-28_13-27-11.476275,"44.96,66.13"
2024-05-28_13-27-11.509002,"60.72,72.33"
2024-05-28_13-27-11.541823,"61.81,65.38"
2024-05-28_13-27-11.570684,"56.63,76.54"
2024-05-28_13-27-11.603320,"65.64,71.98"
2024-05-28_13-27-11.636105,"58.85,68.88"
2024-05-28_13-27-11.668805,"55.65,78.00"
2024-05-28_13-27-11.701606,"97.48,79.16"
2024-05-28_13-27-11.734287,"62.38,81.69"
2024-05-28_13-27-11.766987,"79.03,61.57"
2024-05-28_13-27-11.795749,"93.72,46.93"
2024-05-28_13-27-11.828609,"70.26,53.48"
2024-05-28_13-27-11.861477,"65.90,62.62"
2024-05-28_13-27-11.894130,"49.67,64.67"
2024-05-28_13-27-11.926855,"53.00,70.45"
2024-05-28_13-27-11.959578,"60.82,66.04"
2024-05-28_13-27-11.992304,"68.11,72.93"
2024-05-28_13-27-12.021055,"50.81,80.07"
2024-05-28_13-27-12.053804,"52.92,73.80"
2024-05-28_13-27-12.086609,"91.04,75.73"
2024-05-28_13-27-12.119424,"71.32,67.93"
2024-05-28_13-27-12.152196,"87.30,61.13"
2024-05-28_13-27-12.184881,"91.63,66.52"
2024-05-28_13-27-12.217557,"58.37,44.66"
2024-05-28_13-27-12.246290,"66.65,73.13"
2024-05-28_13-27-12.279112,"58.57,65.22"
2024-05-28_13-27-12.311857,"57.58,76.25"
2024-05-28_13-27-12.344645,"66.36,71.95"
2024-05-28_13-27-12.377391,"60.78,69.96"
2024-05-28_13-27-12.410167,"56.36,78.60"
2024-05-28_13-27-12.442830,"92.62,64.74"
2024-05-28_13-27-12.471577,"59.24,81.39"
2024-05-28_13-27-12.504365,"75.43,76.86"
2024-05-28_13-27-12.537145,"89.15,47.66"
2024-05-28_13-27-12.569897,"66.78,45.76"
2024-05-28_13-27-12.602665,"61.13,63.15"
2024-05-28_13-27-12.635415,"53.82,65.31"
2024-05-28_13-27-12.668116,"52.99,71.47"
2024-05-28_13-27-12.696866,"62.42,67.27"
2024-05-28_13-27-12.729612,"64.19,70.98"
2024-05-28_13-27-12.762413,"50.65,80.61"
2024-05-28_13-27-12.795162,"69.84,73.58"
2024-05-28_13-27-12.827969,"90.69,73.75"
2024-05-28_13-27-12.860694,"71.60,68.33"
2024-05-28_13-27-12.893371,"91.60,41.89"
2024-05-28_13-27-12.922152,"79.29,66.21"
2024-05-28_13-27-12.954919,"58.04,43.98"
2024-05-28_13-27-12.987690,"50.10,72.57"
2024-05-28_13-27-13.020460,"59.64,65.62"
2024-05-28_13-27-13.053189,"56.67,75.46"
2024-05-28_13-27-13.085958,"67.91,73.77"
2024-05-28_13-27-13.118678,"61.10,69.43"
2024-05-28_13-27-13.147462,"55.73,75.82"
2024-05-28_13-27-13.180275,"98.41,81.57"
2024-05-28_13-27-13.213139,"58.66,81.72"
2024-05-28_13-27-13.245775,"78.30,61.80"
2024-05-28_13-27-13.278471,"95.39,47.01"
2024-05-28_13-27-13.311306,"68.81,58.10"
2024-05-28_13-27-13.343928,"70.27,62.22"
2024-05-28_13-27-13.372726,"52.99,65.54"
2024-05-28_13-27-13.405478,"54.12,71.06"
2024-05-28_13-27-13.438221,"61.07,66.28"
2024-05-28_13-27-13.471015,"65.08,70.82"
2024-05-28_13-27-13.503769,"69.31,73.35"
2024-05-28_13-27-13.536521,"90.41,74.03"
2024-05-28_13-27-13.569226,"90.44,78.66"
2024-05-28_13-27-13.597936,"73.33,69.78"
2024-05-28_13-27-13.630708,"87.56,41.37"
2024-05-28_13-27-13.663540,"79.21,63.25"
2024-05-28_13-27-13.696270,"58.72,45.37"
2024-05-28_13-27-13.729082,"49.75,72.44"
2024-05-28_13-27-13.761833,"58.19,64.78"
2024-05-28_13-27-13.794532,"57.84,75.78"
2024-05-28_13-27-13.823234,"63.79,73.81"
2024-05-28_13-27-13.856002,"57.87,68.74"
2024-05-28_13-27-13.888783,"57.73,79.72"
2024-05-28_13-27-13.921562,"101.64,65.46"
2024-05-28_13-27-13.954282,"60.95,78.02"
2024-05-28_13-27-13.987158,"81.60,42.71"
2024-05-28_13-27-14.019832,"90.72,46.11"
2024-05-28_13-27-14.052508,"64.97,61.06"
2024-05-28_13-27-14.081282,"52.74,75.37"
2024-05-28_13-27-14.114127,"55.48,66.01"
2024-05-28_13-27-14.146889,"53.34,71.78"
2024-05-28_13-27-14.179619,"73.25,67.60"
2024-05-28_13-27-14.212327,"54.11,71.64"
2024-05-28_13-27-14.245124,"51.57,81.77"
2024-05-28_13-27-14.277781,"84.20,68.61"
2024-05-28_13-27-14.306557,"73.01,75.71"
2024-05-28_13-27-14.339348,"81.79,48.57"
2024-05-28_13-27-14.372102,"98.21,40.60"
2024-05-28_13-27-14.404890,"71.91,41.20"
2024-05-28_13-27-14.437634,"45.08,64.54"
2024-05-28_13-27-14.470372,"51.28,71.29"
2024-05-28_13-27-14.503081,"59.93,65.64"
2024-05-28_13-27-14.531878,"78.61,80.64"
2024-05-28_13-27-14.564601,"59.16,74.18"
2024-05-28_13-27-14.597362,"50.76,69.70"
2024-05-28_13-27-14.630147,"64.98,79.59"
2024-05-28_13-27-14.662917,"81.00,67.82"
2024-05-28_13-27-14.695619,"68.94,77.56"
2024-05-28_13-27-14.728349,"84.82,41.40"
2024-05-28_13-27-14.757119,"84.56,46.34"
2024-05-28_13-27-14.789875,"67.78,70.69"
2024-05-28_13-27-14.822632,"54.40,75.14"
2024-05-28_13-27-14.855440,"58.09,67.06"
2024-05-28_13-27-14.888193,"53.44,70.76"
2024-05-28_13-27-14.920877,"67.06,67.41"
2024-05-28_13-27-14.953634,"50.49,73.08"
2024-05-28_13-27-14.982393,"69.19,87.32"
2024-05-28_13-27-15.015130,"84.85,76.52"
2024-05-28_13-27-15.047938,"75.31,75.33"
2024-05-28_13-27-15.080680,"87.90,48.82"
2024-05-28_13-27-15.113451,"79.37,38.84"
2024-05-28_13-27-15.146224,"84.10,63.28"
2024-05-28_13-27-15.178891,"50.01,64.80"
2024-05-28_13-27-15.207692,"51.44,70.33"
2024-05-28_13-27-15.240425,"60.83,65.78"
2024-05-28_13-27-15.273218,"64.52,77.88"
2024-05-28_13-27-15.305993,"52.67,73.30"
2024-05-28_13-27-15.338732,"53.33,81.69"
2024-05-28_13-27-15.371460,"88.97,77.76"
2024-05-28_13-27-15.404211,"76.65,71.83"
2024-05-28_13-27-15.432981,"73.61,62.66"
2024-05-28_13-27-15.465722,"90.02,42.58"
2024-05-28_13-27-15.498541,"84.40,62.33"
2024-05-28_13-27-15.531215,"56.68,56.00"
2024-05-28_13-27-15.564005,"58.73,77.99"
2024-05-28_13-27-15.596739,"57.14,66.16"
2024-05-28_13-27-15.629470,"51.56,71.26"
2024-05-28_13-27-15.658200,"69.86,69.42"
2024-05-28_13-27-15.690967,"49.99,86.09"
2024-05-28_13-27-15.723777,"87.95,82.85"
2024-05-28_13-27-15.756528,"63.87,71.65"
2024-05-28_13-27-15.789310,"78.25,59.91"
2024-05-28_13-27-15.822062,"99.07,47.46"
2024-05-28_13-27-15.854757,"63.97,59.20"
2024-05-28_13-27-15.883485,"69.53,59.98"
2024-05-28_13-27-15.916270,"52.93,63.89"
2024-05-28_13-27-15.949039,"54.03,70.62"
2024-05-28_13-27-15.981790,"60.23,67.35"
2024-05-28_13-27-16.014582,"63.59,78.08"
2024-05-28_13-27-16.047292,"49.47,74.37"
2024-05-28_13-27-16.080020,"79.76,85.56"
2024-05-28_13-27-16.108823,"73.96,77.02"
2024-05-28_13-27-16.141512,"80.31,67.48"
2024-05-28_13-27-16.174317,"89.17,41.40"
2024-05-28_13-27-16.207064,"91.04,59.30"
2024-05-28_13-27-16.239801,"66.47,46.93"
2024-05-28_13-27-16.272594,"44.02,70.07"
2024-05-28_13-27-16.305304,"58.47,75.67"
2024-05-28_13-27-16.334077,"57.77,67.61"
2024-05-28_13-27-16.366790,"63.90,71.97"
2024-05-28_13-27-16.399580,"59.61,71.05"
2024-05-28_13-27-16.432345,"67.17,82.27"
2024-05-28_13-27-16.465353,"86.53,78.72"
2024-05-28_13-27-16.497935,"64.29,48.16"
2024-05-28_13-27-16.530551,"80.44,59.89"
2024-05-28_13-27-16.559297,"80.55,46.83"
2024-05-28_13-27-16.592120,"42.97,79.58"
2024-05-28_13-27-16.625027,"51.01,71.97"
2024-05-28_13-27-16.657642,"58.32,65.04"
2024-05-28_13-27-16.690382,"53.80,71.56"
2024-05-28_13-27-16.723174,"73.45,67.47"
2024-05-28_13-27-16.755932,"52.47,79.61"
2024-05-28_13-27-16.784613,"52.60,74.03"
2024-05-28_13-27-16.817350,"92.54,77.05"
2024-05-28_13-27-16.850274,"71.63,74.42"
2024-05-28_13-27-16.882908,"85.27,48.45"
2024-05-28_13-27-16.915652,"75.53,40.46"
2024-05-28_13-27-16.948436,"86.47,59.17"
2024-05-28_13-27-16.981131,"53.11,65.14"
2024-05-28_13-27-17.013841,"45.74,69.48"
2024-05-28_13-27-17.042631,"62.70,75.99"
2024-05-28_13-27-17.075426,"63.20,68.02"
2024-05-28_13-27-17.108258,"54.24,74.55"
2024-05-28_13-27-17.140992,"57.09,80.43"
2024-05-28_13-27-17.173736,"93.89,86.18"
2024-05-28_13-27-17.206417,"76.13,76.04"
2024-05-28_13-27-17.239198,"80.10,45.82"
2024-05-28_13-27-17.267977,"89.44,38.43"
2024-05-28_13-27-17.300648,"65.69,58.97"
2024-05-28_13-27-17.333468,"63.49,78.17"
2024-05-28_13-27-17.366207,"51.68,71.04"
2024-05-28_13-27-17.399062,"57.71,66.34"
2024-05-28_13-27-17.431686,"70.39,72.54"
2024-05-28_13-27-17.464414,"58.01,68.91"
2024-05-28_13-27-17.493208,"53.22,83.53"
2024-05-28_13-27-17.525961,"92.16,71.61"
2024-05-28_13-27-17.558729,"66.47,68.49"
2024-05-28_13-27-17.591527,"81.48,56.87"
2024-05-28_13-27-17.624273,"49.99,79.67"
2024-05-28_13-27-17.657018,"71.99,59.09"
2024-05-28_13-27-17.689726,"51.32,71.99"
2024-05-28_13-27-17.718426,"63.58,66.32"
2024-05-28_13-27-17.751297,"48.16,69.60"
2024-05-28_13-27-17.783993,"67.71,76.93"
2024-05-28_13-27-17.816823,"53.37,71.55"
2024-05-28_13-27-17.849574,"52.17,73.28"
2024-05-28_13-27-17.882262,"90.59,77.05"
2024-05-28_13-27-17.914974,"77.41,78.01"
2024-05-28_13-27-17.943749,"83.18,40.97"
2024-05-28_13-27-17.976706,"89.25,42.79"
2024-05-28_13-27-18.009510,"86.15,61.28"
2024-05-28_13-27-18.042147,"54.90,65.50"
2024-05-28_13-27-18.074828,"53.85,74.56"
2024-05-28_13-27-18.107601,"52.92,71.65"
2024-05-28_13-27-18.140302,"77.87,67.38"
2024-05-28_13-27-18.169112,"54.50,74.17"
2024-05-28_13-27-18.201754,"51.98,81.29"
2024-05-28_13-27-18.234546,"83.26,86.82"
2024-05-28_13-27-18.267308,"74.79,76.57"
2024-05-28_13-27-18.300077,"84.83,47.83"
2024-05-28_13-27-18.332858,"74.03,34.83"
2024-05-28_13-27-18.365543,"74.68,58.66"
2024-05-28_13-27-18.394315,"50.63,64.43"
2024-05-28_13-27-18.427069,"52.89,70.39"
2024-05-28_13-27-18.467533,"60.31,67.57"
2024-05-28_13-27-18.496784,"70.48,70.76"
2024-05-28_13-27-18.526813,"50.93,79.43"
2024-05-28_13-27-18.558442,"52.40,75.73"
2024-05-28_13-27-18.591514,"91.41,72.97"
2024-05-28_13-27-18.619920,"72.79,68.50"
2024-05-28_13-27-18.653346,"71.08,79.42"
2024-05-28_13-27-18.690228,"73.18,58.09"
2024-05-28_13-27-18.718048,"62.56,46.32"
2024-05-28_13-27-18.750752,"49.14,71.46"
2024-05-28_13-27-18.783590,"59.80,65.28"
2024-05-28_13-27-18.816263,"71.25,76.26"
2024-05-28_13-27-18.845028,"61.22,73.74"
2024-05-28_13-27-18.877720,"53.28,70.14"
2024-05-28_13-27-18.910387,"59.68,93.69"
2024-05-28_13-27-18.943129,"93.82,64.73"
2024-05-28_13-27-18.975903,"67.27,77.59"
2024-05-28_13-27-19.008656,"83.90,42.23"
2024-05-28_13-27-19.041374,"84.37,45.52"
2024-05-28_13-27-19.070106,"68.94,46.83"
2024-05-28_13-27-19.103010,"55.17,75.49"
2024-05-28_13-27-19.135681,"55.72,66.24"
2024-05-28_13-27-19.168423,"53.76,72.10"
2024-05-28_13-27-19.201350,"77.18,68.74"
2024-05-28_13-27-19.233935,"48.65,72.24"
2024-05-28_13-27-19.266643,"82.45,84.57"
2024-05-28_13-27-19.299366,"61.95,72.06"
2024-05-28_13-27-19.328168,"77.98,60.04"
2024-05-28_13-27-19.408265,"100.41,46.88"
2024-05-28_13-27-19.408857,"61.26,49.83"
2024-05-28_13-27-19.426454,"60.41,60.37"
2024-05-28_13-27-19.459331,"55.39,65.17"
2024-05-28_13-27-19.491926,"54.83,71.14"
2024-05-28_13-27-19.524622,"71.35,66.70"
2024-05-28_13-27-19.553473,"54.42,80.42"
2024-05-28_13-27-19.586292,"52.36,75.73"
2024-05-28_13-27-19.619040,"95.59,71.92"
2024-05-28_13-27-19.651720,"58.35,58.62"
2024-05-28_13-27-19.684497,"92.67,57.10"
2024-05-28_13-27-19.717206,"75.61,42.00"
2024-05-28_13-27-19.749988,"85.24,59.52"
2024-05-28_13-27-19.778773,"55.86,65.67"
2024-05-28_13-27-19.811515,"46.31,69.12"
2024-05-28_13-27-19.844285,"61.43,76.50"
2024-05-28_13-27-19.877073,"63.82,69.75"
2024-05-28_13-27-19.909788,"49.48,73.13"
2024-05-28_13-27-19.942904,"58.83,73.29"
2024-05-28_13-27-19.975233,"87.29,77.87"
2024-05-28_13-27-20.004006,"76.40,76.00"
2024-05-28_13-27-20.036783,"87.78,43.91"
2024-05-28_13-27-20.069547,"76.83,56.93"
2024-05-28_13-27-20.103474,"66.89,47.71"
2024-05-28_13-27-20.135153,"51.76,75.72"
2024-05-28_13-27-20.167990,"53.22,71.04"
2024-05-28_13-27-20.200514,"60.35,66.74"
2024-05-28_13-27-20.229347,"65.12,72.08"
2024-05-28_13-27-20.262081,"55.57,69.66"
2024-05-28_13-27-20.294849,"75.68,93.72"
2024-05-28_13-27-20.327566,"74.67,77.88"
2024-05-28_13-27-20.360499,"73.87,67.19"
2024-05-28_13-27-20.393078,"91.44,57.80"
2024-05-28_13-27-20.425773,"79.82,58.63"
2024-05-28_13-27-20.454581,"64.74,47.26"
2024-05-28_13-27-20.487290,"53.63,71.94"
2024-05-28_13-27-20.520181,"60.46,65.55"
2024-05-28_13-27-20.552823,"64.31,69.70"
2024-05-28_13-27-20.585690,"62.96,77.70"
2024-05-28_13-27-20.618351,"48.22,72.01"
2024-05-28_13-27-20.651050,"62.54,83.73"
2024-05-28_13-27-20.679865,"74.53,70.52"
2024-05-28_13-27-20.712614,"82.64,64.23"
2024-05-28_13-27-20.745406,"84.96,40.78"
2024-05-28_13-27-20.778151,"65.38,67.13"
2024-05-28_13-27-20.810886,"62.35,58.44"
2024-05-28_13-27-20.843640,"54.46,64.37"
2024-05-28_13-27-20.876389,"56.92,75.60"
2024-05-28_13-27-20.905179,"49.88,73.88"
2024-05-28_13-27-20.937842,"65.00,68.79"
2024-05-28_13-27-20.970641,"55.99,76.94"
2024-05-28_13-27-21.003456,"94.44,66.42"
2024-05-28_13-27-21.036169,"58.74,79.62"
2024-05-28_13-27-21.068930,"79.74,62.23"
2024-05-28_13-27-21.101615,"99.04,46.01"
2024-05-28_13-27-21.130356,"63.94,65.18"
2024-05-28_13-27-21.163220,"66.34,76.94"
2024-05-28_13-27-21.195916,"52.76,65.71"
2024-05-28_13-27-21.228741,"53.05,71.33"
2024-05-28_13-27-21.261455,"72.82,67.81"
2024-05-28_13-27-21.294196,"54.50,71.67"
2024-05-28_13-27-21.326852,"51.44,81.07"
2024-05-28_13-27-21.355647,"81.14,75.96"
2024-05-28_13-27-21.388369,"73.76,74.94"
2024-05-28_13-27-21.421262,"86.59,47.85"
2024-05-28_13-27-21.454041,"81.68,39.92"
2024-05-28_13-27-21.486742,"86.29,63.25"
2024-05-28_13-27-21.519472,"49.73,64.35"
2024-05-28_13-27-21.552213,"52.49,71.04"
2024-05-28_13-27-21.580926,"61.06,65.38"
2024-05-28_13-27-21.613834,"75.05,78.42"
2024-05-28_13-27-21.646530,"52.85,74.58"
2024-05-28_13-27-21.679287,"54.69,76.58"
2024-05-28_13-27-21.712028,"77.83,75.10"
2024-05-28_13-27-21.744882,"83.49,73.69"
2024-05-28_13-27-21.777499,"84.11,62.22"
2024-05-28_13-27-21.806203,"91.20,65.80"
2024-05-28_13-27-21.839042,"67.30,47.23"
2024-05-28_13-27-21.871765,"42.78,70.33"
2024-05-28_13-27-21.904608,"59.01,75.70"
2024-05-28_13-27-21.937295,"58.23,68.23"
2024-05-28_13-27-21.970061,"60.67,72.32"
2024-05-28_13-27-22.002740,"56.08,70.01"
2024-05-28_13-27-22.031503,"79.00,81.59"
2024-05-28_13-27-22.064290,"79.76,76.54"
2024-05-28_13-27-22.097051,"74.19,46.17"
2024-05-28_13-27-22.129779,"87.10,39.33"
2024-05-28_13-27-22.162563,"81.58,61.95"
2024-05-28_13-27-22.195326,"52.58,62.52"
2024-05-28_13-27-22.228028,"51.77,71.48"
2024-05-28_13-27-22.260727,"59.71,66.27"
2024-05-28_13-27-22.289527,"69.36,71.45"
2024-05-28_13-27-22.322413,"62.36,68.58"
2024-05-28_13-27-22.355070,"52.06,85.97"
2024-05-28_13-27-22.387810,"94.13,69.40"
2024-05-28_13-27-22.420641,"67.46,69.13"
2024-05-28_13-27-22.453328,"85.46,58.60"
2024-05-28_13-27-22.486039,"88.28,58.51"
2024-05-28_13-27-22.514800,"58.53,59.27"
2024-05-28_13-27-22.547544,"53.15,73.77"
2024-05-28_13-27-22.580422,"59.57,65.13"
2024-05-28_13-27-22.613079,"47.93,69.34"
2024-05-28_13-27-22.645918,"71.07,77.93"
2024-05-28_13-27-22.678578,"53.79,70.47"
2024-05-28_13-27-22.711344,"82.42,76.87"
2024-05-28_13-27-22.740077,"86.34,78.94"
2024-05-28_13-27-22.772827,"77.83,62.97"
2024-05-28_13-27-22.805748,"84.08,41.73"
2024-05-28_13-27-22.838431,"80.11,43.47"
2024-05-28_13-27-22.871134,"74.50,53.90"
2024-05-28_13-27-22.903875,"54.62,64.70"
2024-05-28_13-27-22.936543,"58.22,75.76"
2024-05-28_13-27-22.965404,"51.88,72.90"
2024-05-28_13-27-22.998068,"66.06,67.80"
2024-05-28_13-27-23.030907,"55.69,75.11"
2024-05-28_13-27-23.063643,"86.24,85.06"
2024-05-28_13-27-23.096462,"59.41,79.74"
2024-05-28_13-27-23.129126,"80.47,62.20"
2024-05-28_13-27-23.161847,"101.92,46.64"
2024-05-28_13-27-23.190676,"63.80,65.65"
2024-05-28_13-27-23.223417,"51.31,75.31"
2024-05-28_13-27-23.256295,"55.02,65.83"
2024-05-28_13-27-23.288986,"53.37,71.85"
2024-05-28_13-27-23.321787,"67.49,67.62"
2024-05-28_13-27-23.354446,"48.08,72.22"
2024-05-28_13-27-23.387113,"68.44,86.04"
2024-05-28_13-27-23.415959,"78.50,65.18"
2024-05-28_13-27-23.448685,"76.60,60.03"
2024-05-28_13-27-23.481433,"93.30,47.18"
2024-05-28_13-27-23.514278,"79.97,57.52"
2024-05-28_13-27-23.547001,"67.64,60.35"
2024-05-28_13-27-23.579684,"52.74,64.68"
2024-05-28_13-27-23.612416,"53.24,70.80"
2024-05-28_13-27-23.641206,"74.49,66.37"
2024-05-28_13-27-23.673932,"56.56,80.03"
2024-05-28_13-27-23.706748,"74.83,71.56"
2024-05-28_13-27-23.739474,"88.62,75.97"
2024-05-28_13-27-23.772284,"75.56,74.21"
2024-05-28_13-27-23.804964,"89.81,48.57"
2024-05-28_13-27-23.837681,"65.61,39.59"
2024-05-28_13-27-23.866501,"76.28,71.74"
2024-05-28_13-27-23.899273,"57.00,65.82"
2024-05-28_13-27-23.932017,"47.29,69.43"
2024-05-28_13-27-23.964801,"61.03,77.11"
2024-05-28_13-27-23.997566,"66.29,70.23"
2024-05-28_13-27-24.030234,"50.62,73.77"
2024-05-28_13-27-24.062991,"90.13,71.98"
2024-05-28_13-27-24.091740,"73.70,80.18"
2024-05-28_13-27-24.124696,"79.91,41.80"
2024-05-28_13-27-24.157250,"85.61,42.71"
2024-05-28_13-27-24.190001,"87.10,59.91"
2024-05-28_13-27-24.222865,"54.31,65.66"
2024-05-28_13-27-24.255560,"55.62,75.16"
2024-05-28_13-27-24.288795,"52.37,72.71"
2024-05-28_13-27-24.317057,"76.36,68.12"
2024-05-28_13-27-24.349826,"53.82,73.25"
2024-05-28_13-27-24.382532,"69.05,74.38"
2024-05-28_13-27-24.415297,"61.36,80.38"
2024-05-28_13-27-24.448190,"77.64,61.58"
2024-05-28_13-27-24.480843,"92.97,46.87"
2024-05-28_13-27-24.513522,"70.65,54.36"
2024-05-28_13-27-24.542259,"69.53,61.93"
2024-05-28_13-27-24.575059,"53.53,65.67"
2024-05-28_13-27-24.607768,"54.52,71.10"
2024-05-28_13-27-24.640580,"71.91,66.96"
2024-05-28_13-27-24.673317,"55.42,72.62"
2024-05-28_13-27-24.706162,"75.34,84.50"
2024-05-28_13-27-24.738853,"74.69,63.23"
2024-05-28_13-27-24.771513,"74.82,76.06"
2024-05-28_13-27-24.800288,"90.24,66.67"
2024-05-28_13-27-24.833140,"79.76,39.19"
2024-05-28_13-27-24.865864,"75.17,51.10"
2024-05-28_13-27-24.898594,"51.48,65.03"
2024-05-28_13-27-24.931553,"51.97,70.45"
2024-05-28_13-27-24.964115,"61.15,65.47"
2024-05-28_13-27-24.996789,"71.33,78.95"
2024-05-28_13-27-25.025642,"49.47,73.84"
2024-05-28_13-27-25.058521,"82.92,72.19"
2024-05-28_13-27-25.091148,"74.67,76.68"
2024-05-28_13-27-25.124103,"83.34,67.88"
2024-05-28_13-27-25.156732,"95.10,40.16"
2024-05-28_13-27-25.189439,"72.65,42.00"
2024-05-28_13-27-25.222058,"69.83,66.36"
2024-05-28_13-27-25.250915,"45.79,69.62"
2024-05-28_13-27-25.283646,"60.87,75.21"
2024-05-28_13-27-25.316423,"67.69,69.00"
2024-05-28_13-27-25.349280,"56.38,73.13"
2024-05-28_13-27-25.381945,"56.45,69.65"
2024-05-28_13-27-25.414632,"88.53,84.31"
2024-05-28_13-27-25.447437,"76.14,76.04"
2024-05-28_13-27-25.476114,"79.17,46.25"
2024-05-28_13-27-25.508884,"79.35,39.34"
2024-05-28_13-27-25.541661,"66.84,69.72"
2024-05-28_13-27-25.574442,"56.85,62.89"
2024-05-28_13-27-25.607236,"52.47,71.11"
2024-05-28_13-27-25.639945,"56.82,67.06"
2024-05-28_13-27-25.672653,"64.61,71.95"
2024-05-28_13-27-25.701435,"56.73,69.94"
2024-05-28_13-27-25.734186,"82.72,84.95"
2024-05-28_13-27-25.766917,"62.41,78.68"
2024-05-28_13-27-25.799760,"81.12,67.94"
2024-05-28_13-27-25.832480,"92.65,34.57"
2024-05-28_13-27-25.865227,"81.16,63.07"
2024-05-28_13-27-25.897941,"51.61,63.88"
2024-05-28_13-27-25.926684,"51.42,71.48"
2024-05-28_13-27-25.959446,"61.17,66.07"
2024-05-28_13-27-25.992200,"58.13,70.49"
2024-05-28_13-27-26.025009,"53.61,80.09"
2024-05-28_13-27-26.057803,"51.93,76.32"
2024-05-28_13-27-26.091579,"92.94,70.76"
2024-05-28_13-27-26.130469,"72.09,68.97"
2024-05-28_13-27-26.152168,"92.73,40.05"
2024-05-28_13-27-26.187049,"74.43,50.40"
2024-05-28_13-27-26.217526,"52.16,46.45"
2024-05-28_13-27-26.250323,"50.88,71.10"
2024-05-28_13-27-26.283106,"61.59,65.79"
2024-05-28_13-27-26.315829,"68.53,76.42"
2024-05-28_13-27-26.348492,"56.55,74.46"
2024-05-28_13-27-26.377243,"52.57,69.77"
2024-05-28_13-27-26.410040,"86.63,77.78"
2024-05-28_13-27-26.442826,"76.37,71.43"
2024-05-28_13-27-26.475629,"80.33,62.23"
2024-05-28_13-27-26.508302,"91.01,41.49"
2024-05-28_13-27-26.541003,"64.05,45.96"
2024-05-28_13-27-26.573851,"42.87,71.43"
2024-05-28_13-27-26.602485,"60.19,75.24"
2024-05-28_13-27-26.635328,"71.61,68.85"
2024-05-28_13-27-26.668051,"61.04,73.27"
2024-05-28_13-27-26.700843,"55.37,70.19"
2024-05-28_13-27-26.733602,"78.97,78.73"
2024-05-28_13-27-26.766356,"69.09,75.72"
2024-05-28_13-27-26.799022,"72.88,69.95"
2024-05-28_13-27-26.827802,"87.27,59.61"
2024-05-28_13-27-26.860594,"80.86,62.43"
2024-05-28_13-27-26.893306,"52.77,62.50"
2024-05-28_13-27-26.926087,"51.48,71.73"
2024-05-28_13-27-26.958874,"59.20,66.13"
2024-05-28_13-27-26.991622,"53.68,71.42"
2024-05-28_13-27-27.027667,"62.80,69.54"
2024-05-28_13-27-27.053107,"52.09,84.65"
2024-05-28_13-27-27.085875,"92.00,72.29"
2024-05-28_13-27-27.118591,"68.36,68.26"
2024-05-28_13-27-27.151352,"87.48,35.77"
2024-05-28_13-27-27.184143,"79.46,65.17"
2024-05-28_13-27-27.216968,"62.03,48.24"
2024-05-28_13-27-27.249627,"50.81,72.08"
2024-05-28_13-27-27.278387,"62.04,66.61"
2024-05-28_13-27-27.311227,"64.09,69.80"
2024-05-28_13-27-27.343878,"60.42,79.13"
2024-05-28_13-27-27.376655,"50.98,72.44"
2024-05-28_13-27-27.409407,"90.56,77.38"
2024-05-28_13-27-27.442167,"69.53,71.73"
2024-05-28_13-27-27.474916,"86.87,62.23"
2024-05-28_13-27-27.503599,"90.30,40.86"
2024-05-28_13-27-27.536396,"59.26,44.17"
2024-05-28_13-27-27.569118,"52.44,73.24"
2024-05-28_13-27-27.601913,"59.19,64.61"
2024-05-28_13-27-27.634670,"55.58,76.31"
2024-05-28_13-27-27.667481,"62.60,73.72"
2024-05-28_13-27-27.700178,"52.40,69.59"
2024-05-28_13-27-27.732904,"78.12,77.68"
2024-05-28_13-27-27.761602,"79.95,66.58"
2024-05-28_13-27-27.794444,"67.80,66.04"
2024-05-28_13-27-27.827249,"63.37,61.96"
2024-05-28_13-27-27.859968,"69.30,64.60"
2024-05-28_13-27-27.892693,"59.87,55.86"
2024-05-28_13-27-27.925509,"56.68,74.62"
2024-05-28_13-27-27.958159,"59.34,67.57"
2024-05-28_13-27-27.986928,"66.87,72.26"
2024-05-28_13-27-28.019656,"61.52,69.20"
2024-05-28_13-27-28.052513,"68.87,81.31"
2024-05-28_13-27-28.085230,"89.44,78.99"
2024-05-28_13-27-28.118014,"63.75,66.01"
2024-05-28_13-27-28.150735,"83.05,39.75"
2024-05-28_13-27-28.183458,"77.97,63.70"
2024-05-28_13-27-28.212218,"64.75,50.00"
2024-05-28_13-27-28.244982,"51.24,72.64"
2024-05-28_13-27-28.277928,"58.23,65.32"
2024-05-28_13-27-28.310564,"54.03,72.44"
2024-05-28_13-27-28.343384,"70.51,67.82"
2024-05-28_13-27-28.376061,"50.54,88.40"
2024-05-28_13-27-28.408750,"84.13,69.06"
2024-05-28_13-27-28.437528,"66.86,69.17"
2024-05-28_13-27-28.470235,"85.24,58.07"
2024-05-28_13-27-28.503015,"88.95,54.34"
2024-05-28_13-27-28.535818,"76.56,54.62"
2024-05-28_13-27-28.568584,"52.13,71.98"
2024-05-28_13-27-28.601307,"59.01,66.39"
2024-05-28_13-27-28.634016,"63.20,70.24"
2024-05-28_13-27-28.662762,"59.35,78.37"
2024-05-28_13-27-28.695546,"49.68,84.28"
2024-05-28_13-27-28.728327,"88.82,79.36"
2024-05-28_13-27-28.761050,"70.78,70.46"
2024-05-28_13-27-28.793894,"73.36,78.46"
2024-05-28_13-27-28.826630,"79.11,83.55"
2024-05-28_13-27-28.859238,"55.05,46.25"
2024-05-28_13-27-28.889807,"50.37,71.59"
2024-05-28_13-27-28.920957,"60.15,65.54"
2024-05-28_13-27-28.953676,"70.76,76.62"
2024-05-28_13-27-28.986390,"57.68,74.11"
2024-05-28_13-27-29.019105,"52.67,71.09"
2024-05-28_13-27-29.051860,"79.95,76.76"
2024-05-28_13-27-29.084569,"76.88,71.82"
2024-05-28_13-27-29.113298,"81.01,42.78"
