timestamp,EMG
2024-05-28_12-53-16.745985,"100.89,84.69"
2024-05-28_12-53-16.777784,"84.26,86.22"
2024-05-28_12-53-16.810589,"107.64,74.87"
2024-05-28_12-53-16.843324,"94.82,82.50"
2024-05-28_12-53-16.876033,"107.63,52.73"
2024-05-28_12-53-16.904724,"96.13,51.51"
2024-05-28_12-53-16.937484,"87.50,53.05"
2024-05-28_12-53-16.970399,"63.98,61.04"
2024-05-28_12-53-17.003066,"68.51,62.10"
2024-05-28_12-53-17.035834,"79.17,88.27"
2024-05-28_12-53-17.068616,"91.75,75.38"
2024-05-28_12-53-17.101272,"103.37,81.14"
2024-05-28_12-53-17.129980,"92.28,84.14"
2024-05-28_12-53-17.162733,"87.33,70.46"
2024-05-28_12-53-17.195627,"98.79,52.72"
2024-05-28_12-53-17.228267,"97.43,55.92"
2024-05-28_12-53-17.261034,"77.00,48.12"
2024-05-28_12-53-17.293850,"65.68,87.30"
2024-05-28_12-53-17.326536,"74.13,81.15"
2024-05-28_12-53-17.355312,"87.66,93.73"
2024-05-28_12-53-17.388052,"100.83,78.50"
2024-05-28_12-53-17.420783,"95.67,81.99"
2024-05-28_12-53-17.453602,"104.20,81.46"
2024-05-28_12-53-17.486433,"97.06,51.25"
2024-05-28_12-53-17.519158,"98.90,53.03"
2024-05-28_12-53-17.551806,"101.52,56.38"
2024-05-28_12-53-17.584525,"65.68,57.48"
2024-05-28_12-53-17.615886,"75.96,55.27"
2024-05-28_12-53-17.647470,"79.89,77.39"
2024-05-28_12-53-17.678905,"91.66,91.16"
2024-05-28_12-53-17.711676,"93.78,86.11"
2024-05-28_12-53-17.744386,"80.72,74.24"
2024-05-28_12-53-17.777103,"103.30,52.24"
2024-05-28_12-53-17.809776,"96.42,56.42"
2024-05-28_12-53-17.838609,"94.51,46.77"
2024-05-28_12-53-17.871391,"90.40,58.12"
2024-05-28_12-53-17.904134,"59.24,64.52"
2024-05-28_12-53-17.936878,"77.33,71.17"
2024-05-28_12-53-17.969730,"85.10,94.55"
2024-05-28_12-53-18.002328,"93.12,85.46"
2024-05-28_12-53-18.035043,"95.98,80.85"
2024-05-28_12-53-18.063839,"100.26,68.86"
2024-05-28_12-53-18.096603,"100.22,68.59"
2024-05-28_12-53-18.129543,"107.46,56.65"
2024-05-28_12-53-18.162227,"92.24,54.03"
2024-05-28_12-53-18.199173,"78.36,55.22"
2024-05-28_12-53-18.227668,"59.78,57.21"
2024-05-28_12-53-18.260363,"73.58,91.57"
2024-05-28_12-53-18.289121,"86.85,90.62"
2024-05-28_12-53-18.321857,"79.37,76.80"
2024-05-28_12-53-18.354699,"99.93,80.51"
2024-05-28_12-53-18.387412,"91.54,71.66"
2024-05-28_12-53-18.420240,"77.44,64.57"
2024-05-28_12-53-18.452933,"110.46,57.04"
2024-05-28_12-53-18.485668,"88.25,54.72"
2024-05-28_12-53-18.514427,"74.24,55.73"
2024-05-28_12-53-18.547190,"73.57,85.66"
2024-05-28_12-53-18.579891,"81.24,80.02"
2024-05-28_12-53-18.612680,"96.46,87.34"
2024-05-28_12-53-18.645440,"82.63,77.52"
2024-05-28_12-53-18.678349,"95.12,79.35"
2024-05-28_12-53-18.710953,"105.82,72.27"
2024-05-28_12-53-18.739744,"83.03,53.37"
2024-05-28_12-53-18.772440,"110.53,53.20"
2024-05-28_12-53-18.805214,"77.26,53.64"
2024-05-28_12-53-18.837938,"66.25,56.69"
2024-05-28_12-53-18.870745,"71.93,77.65"
2024-05-28_12-53-18.903428,"79.00,83.14"
2024-05-28_12-53-18.936210,"85.39,80.54"
2024-05-28_12-53-18.964901,"89.65,84.69"
2024-05-28_12-53-18.997716,"86.69,76.69"
2024-05-28_12-53-19.030462,"101.54,71.67"
2024-05-28_12-53-19.063378,"75.28,53.75"
2024-05-28_12-53-19.096000,"107.11,52.94"
2024-05-28_12-53-19.128765,"74.82,58.02"
2024-05-28_12-53-19.161389,"76.84,82.99"
2024-05-28_12-53-19.190174,"71.96,95.87"
2024-05-28_12-53-19.222940,"94.88,77.08"
2024-05-28_12-53-19.255701,"88.08,82.36"
2024-05-28_12-53-19.288499,"107.88,74.92"
2024-05-28_12-53-19.321238,"93.97,82.73"
2024-05-28_12-53-19.353984,"98.59,52.64"
2024-05-28_12-53-19.386675,"86.87,51.16"
2024-05-28_12-53-19.415435,"94.61,51.85"
2024-05-28_12-53-19.448195,"68.61,60.83"
2024-05-28_12-53-19.481018,"71.90,82.49"
2024-05-28_12-53-19.513765,"75.66,88.76"
2024-05-28_12-53-19.546508,"93.02,82.63"
2024-05-28_12-53-19.579276,"93.89,84.22"
2024-05-28_12-53-19.611981,"98.44,85.04"
2024-05-28_12-53-19.640716,"75.09,70.27"
2024-05-28_12-53-19.673463,"88.31,69.14"
2024-05-28_12-53-19.708256,"96.90,56.59"
2024-05-28_12-53-19.741544,"83.80,47.80"
2024-05-28_12-53-19.771814,"69.76,77.61"
2024-05-28_12-53-19.804589,"79.33,68.79"
2024-05-28_12-53-19.837222,"86.66,85.91"
2024-05-28_12-53-19.865981,"83.11,76.97"
2024-05-28_12-53-19.898916,"97.34,83.13"
2024-05-28_12-53-19.931640,"98.72,68.35"
2024-05-28_12-53-19.964369,"98.45,51.38"
2024-05-28_12-53-19.997032,"98.24,53.68"
2024-05-28_12-53-20.029863,"97.68,56.61"
2024-05-28_12-53-20.062489,"66.44,56.84"
2024-05-28_12-53-20.091262,"63.56,78.12"
2024-05-28_12-53-20.124064,"74.37,79.49"
2024-05-28_12-53-20.157775,"82.71,93.03"
2024-05-28_12-53-20.189725,"86.08,89.23"
2024-05-28_12-53-20.222452,"85.14,62.09"
2024-05-28_12-53-20.255543,"93.17,56.01"
2024-05-28_12-53-20.289628,"95.87,57.41"
2024-05-28_12-53-20.316693,"77.31,49.32"
2024-05-28_12-53-20.351325,"92.44,59.07"
2024-05-28_12-53-20.382235,"58.03,57.58"
2024-05-28_12-53-20.417526,"77.03,71.97"
2024-05-28_12-53-20.450096,"78.19,94.02"
2024-05-28_12-53-20.480512,"87.94,86.71"
2024-05-28_12-53-20.527910,"78.37,89.06"
2024-05-28_12-53-20.543800,"89.50,57.64"
2024-05-28_12-53-20.575689,"84.12,56.22"
2024-05-28_12-53-20.607396,"100.64,57.82"
2024-05-28_12-53-20.640097,"98.24,54.39"
2024-05-28_12-53-20.674035,"75.89,55.52"
2024-05-28_12-53-20.705655,"65.46,56.25"
2024-05-28_12-53-20.738294,"76.16,83.26"
2024-05-28_12-53-20.767094,"95.54,89.37"
2024-05-28_12-53-20.799842,"82.95,76.65"
2024-05-28_12-53-20.832618,"104.28,79.72"
2024-05-28_12-53-20.865372,"94.18,72.10"
2024-05-28_12-53-20.898211,"99.85,46.74"
2024-05-28_12-53-20.930913,"109.76,56.65"
2024-05-28_12-53-20.963695,"82.00,54.86"
2024-05-28_12-53-20.996276,"72.49,56.27"
2024-05-28_12-53-21.025118,"71.79,91.96"
2024-05-28_12-53-21.057931,"80.98,87.42"
2024-05-28_12-53-21.090678,"92.89,86.23"
2024-05-28_12-53-21.123710,"84.28,81.87"
2024-05-28_12-53-21.156173,"94.76,79.79"
2024-05-28_12-53-21.188858,"95.20,71.84"
2024-05-28_12-53-21.221603,"96.12,53.34"
2024-05-28_12-53-21.250402,"107.86,53.65"
2024-05-28_12-53-21.285081,"77.39,53.70"
2024-05-28_12-53-21.324130,"64.06,64.69"
2024-05-28_12-53-21.348704,"77.87,90.33"
2024-05-28_12-53-21.381522,"88.23,88.88"
2024-05-28_12-53-21.444228,"71.34,95.46"
2024-05-28_12-53-21.451628,"77.23,66.73"
2024-05-28_12-53-21.477305,"82.82,52.45"
2024-05-28_12-53-21.515189,"103.37,57.65"
2024-05-28_12-53-21.541603,"79.87,55.26"
2024-05-28_12-53-21.573929,"82.03,57.49"
2024-05-28_12-53-21.606868,"69.20,59.05"
2024-05-28_12-53-21.642233,"72.89,60.32"
2024-05-28_12-53-21.672187,"70.98,96.36"
2024-05-28_12-53-21.700973,"81.30,79.56"
2024-05-28_12-53-21.733775,"82.47,88.45"
2024-05-28_12-53-21.766477,"98.86,63.46"
2024-05-28_12-53-21.799230,"93.17,54.00"
2024-05-28_12-53-21.832063,"99.29,53.09"
2024-05-28_12-53-21.864672,"99.02,51.81"
2024-05-28_12-53-21.897408,"75.48,54.09"
2024-05-28_12-53-21.926151,"59.59,77.38"
2024-05-28_12-53-21.958970,"77.89,90.57"
2024-05-28_12-53-21.991829,"78.83,90.88"
2024-05-28_12-53-22.024545,"79.60,72.72"
2024-05-28_12-53-22.057270,"92.50,86.10"
2024-05-28_12-53-22.089968,"97.22,84.49"
2024-05-28_12-53-22.122654,"75.04,54.11"
2024-05-28_12-53-22.151427,"108.09,53.02"
2024-05-28_12-53-22.184289,"96.27,56.73"
2024-05-28_12-53-22.217008,"68.08,49.47"
2024-05-28_12-53-22.249765,"71.96,78.63"
2024-05-28_12-53-22.282507,"81.65,88.50"
2024-05-28_12-53-22.315203,"96.80,82.49"
2024-05-28_12-53-22.347937,"100.12,78.35"
2024-05-28_12-53-22.376706,"86.45,81.11"
2024-05-28_12-53-22.409434,"96.84,68.47"
2024-05-28_12-53-22.442220,"97.14,51.50"
2024-05-28_12-53-22.474995,"104.44,52.92"
2024-05-28_12-53-22.507807,"82.80,59.24"
2024-05-28_12-53-22.544560,"63.55,57.82"
2024-05-28_12-53-22.573183,"74.94,81.71"
2024-05-28_12-53-22.601947,"79.19,75.89"
2024-05-28_12-53-22.639101,"89.53,78.88"
2024-05-28_12-53-22.673586,"108.08,86.09"
2024-05-28_12-53-22.700276,"86.24,70.72"
2024-05-28_12-53-22.733104,"107.94,52.39"
2024-05-28_12-53-22.765975,"98.11,56.73"
2024-05-28_12-53-22.798488,"92.88,47.23"
2024-05-28_12-53-22.827226,"70.77,61.31"
2024-05-28_12-53-22.859958,"65.38,80.79"
2024-05-28_12-53-22.892757,"78.95,87.59"
2024-05-28_12-53-22.925529,"88.09,82.29"
2024-05-28_12-53-22.958307,"87.35,89.89"
2024-05-28_12-53-22.991077,"108.88,79.82"
2024-05-28_12-53-23.023774,"84.72,68.38"
2024-05-28_12-53-23.052492,"78.45,51.90"
2024-05-28_12-53-23.085343,"110.02,56.40"
2024-05-28_12-53-23.118080,"80.36,55.11"
2024-05-28_12-53-23.150774,"68.15,56.85"
2024-05-28_12-53-23.183567,"65.01,58.78"
2024-05-28_12-53-23.216316,"89.89,85.92"
2024-05-28_12-53-23.249017,"88.66,84.96"
2024-05-28_12-53-23.277760,"87.71,73.21"
2024-05-28_12-53-23.310511,"92.14,79.73"
2024-05-28_12-53-23.343280,"84.51,72.08"
2024-05-28_12-53-23.376015,"77.19,46.47"
2024-05-28_12-53-23.408829,"109.45,56.33"
2024-05-28_12-53-23.441592,"65.29,56.47"
2024-05-28_12-53-23.474279,"64.52,80.96"
2024-05-28_12-53-23.503082,"79.23,88.39"
2024-05-28_12-53-23.535832,"86.12,84.73"
2024-05-28_12-53-23.568610,"93.89,93.52"
2024-05-28_12-53-23.601397,"95.08,72.19"
2024-05-28_12-53-23.634164,"96.70,68.03"
2024-05-28_12-53-23.666915,"107.45,56.85"
2024-05-28_12-53-23.699633,"102.60,53.51"
2024-05-28_12-53-23.732262,"94.68,53.26"
2024-05-28_12-53-23.761060,"62.82,56.15"
2024-05-28_12-53-23.793849,"77.13,57.61"
2024-05-28_12-53-23.826579,"86.43,89.25"
2024-05-28_12-53-23.859354,"92.45,76.54"
2024-05-28_12-53-23.892129,"99.37,80.04"
2024-05-28_12-53-23.924822,"93.87,71.95"
2024-05-28_12-53-23.957658,"77.57,78.54"
2024-05-28_12-53-23.986388,"103.59,56.42"
2024-05-28_12-53-24.019157,"85.77,54.29"
2024-05-28_12-53-24.051970,"81.24,54.91"
2024-05-28_12-53-24.084708,"65.32,54.77"
2024-05-28_12-53-24.117458,"78.99,75.32"
2024-05-28_12-53-24.150152,"82.88,91.85"
2024-05-28_12-53-24.182842,"86.68,70.18"
2024-05-28_12-53-24.211660,"87.58,79.44"
2024-05-28_12-53-24.244383,"91.55,71.55"
2024-05-28_12-53-24.277158,"84.41,70.01"
2024-05-28_12-53-24.309918,"95.62,53.07"
2024-05-28_12-53-24.343016,"89.67,52.14"
2024-05-28_12-53-24.375384,"67.10,54.95"
2024-05-28_12-53-24.408092,"68.42,96.58"
2024-05-28_12-53-24.436867,"81.94,83.13"
2024-05-28_12-53-24.469657,"87.35,79.21"
2024-05-28_12-53-24.502395,"86.94,85.04"
2024-05-28_12-53-24.535188,"103.86,77.47"
2024-05-28_12-53-24.567966,"102.73,72.08"
2024-05-28_12-53-24.600666,"76.21,53.98"
2024-05-28_12-53-24.633381,"109.06,52.39"
2024-05-28_12-53-24.662141,"75.25,56.98"
2024-05-28_12-53-24.694910,"78.33,52.97"
2024-05-28_12-53-24.727759,"72.91,92.16"
2024-05-28_12-53-24.760526,"89.95,84.25"
2024-05-28_12-53-24.793199,"83.42,89.10"
2024-05-28_12-53-24.825940,"102.34,73.77"
2024-05-28_12-53-24.858639,"82.73,82.16"
2024-05-28_12-53-24.887392,"87.66,52.70"
2024-05-28_12-53-24.920135,"106.24,51.33"
2024-05-28_12-53-24.952909,"90.89,52.55"
2024-05-28_12-53-24.985700,"63.59,61.39"
2024-05-28_12-53-25.018556,"69.50,61.19"
2024-05-28_12-53-25.051233,"79.39,86.55"
2024-05-28_12-53-25.083943,"81.06,75.95"
2024-05-28_12-53-25.112658,"102.60,77.30"
2024-05-28_12-53-25.145485,"90.94,84.15"
2024-05-28_12-53-25.178232,"76.11,70.37"
2024-05-28_12-53-25.210952,"89.05,52.69"
2024-05-28_12-53-25.243735,"98.25,56.32"
2024-05-28_12-53-25.276504,"79.35,47.91"
2024-05-28_12-53-25.309206,"63.81,85.91"
2024-05-28_12-53-25.337907,"74.38,80.38"
2024-05-28_12-53-25.370701,"87.58,88.80"
2024-05-28_12-53-25.403769,"102.06,84.22"
2024-05-28_12-53-25.436367,"94.90,82.46"
2024-05-28_12-53-25.469167,"105.41,67.86"
2024-05-28_12-53-25.502511,"97.63,51.46"
2024-05-28_12-53-25.534874,"79.09,54.42"
2024-05-28_12-53-25.563374,"95.13,59.79"
2024-05-28_12-53-25.596003,"62.34,58.53"
2024-05-28_12-53-25.628727,"74.76,74.64"
2024-05-28_12-53-25.661654,"79.57,84.61"
2024-05-28_12-53-25.694452,"86.85,86.17"
2024-05-28_12-53-25.727173,"92.98,88.90"
2024-05-28_12-53-25.760065,"90.70,71.25"
2024-05-28_12-53-25.792444,"106.28,52.55"
2024-05-28_12-53-25.821240,"86.61,56.72"
2024-05-28_12-53-25.854097,"106.99,46.52"
2024-05-28_12-53-25.886781,"80.73,58.58"
2024-05-28_12-53-25.919594,"55.63,58.85"
2024-05-28_12-53-25.952344,"76.21,76.35"
2024-05-28_12-53-25.985052,"92.24,83.86"
2024-05-28_12-53-26.013796,"83.77,85.95"
2024-05-28_12-53-26.046631,"90.93,85.00"
2024-05-28_12-53-26.079363,"89.35,53.09"
2024-05-28_12-53-26.112135,"93.85,53.19"
2024-05-28_12-53-26.145256,"105.21,56.88"
2024-05-28_12-53-26.177656,"89.00,54.76"
2024-05-28_12-53-26.210324,"72.87,56.03"
2024-05-28_12-53-26.243347,"72.20,85.22"
2024-05-28_12-53-26.271829,"78.24,89.75"
2024-05-28_12-53-26.304556,"91.58,93.92"
2024-05-28_12-53-26.337318,"76.59,81.60"
2024-05-28_12-53-26.370296,"105.53,80.29"
2024-05-28_12-53-26.402876,"96.27,56.59"
2024-05-28_12-53-26.435640,"101.23,46.86"
2024-05-28_12-53-26.464306,"99.69,56.40"
2024-05-28_12-53-26.497083,"77.54,55.02"
2024-05-28_12-53-26.529865,"72.92,55.65"
2024-05-28_12-53-26.562634,"71.28,75.05"
2024-05-28_12-53-26.595374,"79.92,84.40"
2024-05-28_12-53-26.628131,"80.15,85.71"
2024-05-28_12-53-26.660830,"90.75,73.52"
2024-05-28_12-53-26.693507,"84.87,79.56"
2024-05-28_12-53-26.722663,"96.03,72.13"
2024-05-28_12-53-26.756392,"94.87,53.65"
2024-05-28_12-53-26.787892,"74.67,56.33"
2024-05-28_12-53-26.820705,"77.47,53.77"
2024-05-28_12-53-26.853425,"65.80,57.33"
2024-05-28_12-53-26.886098,"81.45,96.29"
2024-05-28_12-53-26.918785,"90.09,82.55"
2024-05-28_12-53-26.947612,"89.74,86.98"
2024-05-28_12-53-26.980392,"89.72,75.76"
2024-05-28_12-53-27.016305,"92.74,65.71"
2024-05-28_12-53-27.055732,"104.57,57.99"
2024-05-28_12-53-27.083559,"79.87,55.20"
2024-05-28_12-53-27.111419,"83.46,56.23"
2024-05-28_12-53-27.144323,"64.27,59.09"
2024-05-28_12-53-27.172890,"75.14,83.39"
2024-05-28_12-53-27.205752,"72.80,93.83"
2024-05-28_12-53-27.238415,"88.92,81.48"
2024-05-28_12-53-27.271253,"88.60,90.67"
2024-05-28_12-53-27.303927,"93.42,72.78"
2024-05-28_12-53-27.336628,"83.99,82.54"
2024-05-28_12-53-27.369432,"99.07,52.62"
2024-05-28_12-53-27.398212,"104.39,51.25"
2024-05-28_12-53-27.430951,"84.78,53.87"
2024-05-28_12-53-27.463938,"65.14,63.59"
2024-05-28_12-53-27.496527,"78.52,87.88"
2024-05-28_12-53-27.529396,"78.34,94.66"
2024-05-28_12-53-27.562241,"87.69,81.47"
2024-05-28_12-53-27.594799,"96.34,82.30"
2024-05-28_12-53-27.623447,"102.95,72.32"
2024-05-28_12-53-27.656170,"88.49,54.35"
2024-05-28_12-53-27.688902,"99.98,53.19"
2024-05-28_12-53-27.721713,"95.36,56.82"
2024-05-28_12-53-27.754433,"71.94,48.85"
2024-05-28_12-53-27.787176,"62.47,63.64"
2024-05-28_12-53-27.819896,"74.61,81.05"
2024-05-28_12-53-27.848678,"82.52,88.64"
2024-05-28_12-53-27.881405,"100.41,81.97"
2024-05-28_12-53-27.914231,"92.12,82.55"
2024-05-28_12-53-27.946952,"105.84,81.37"
2024-05-28_12-53-27.979733,"86.73,51.37"
2024-05-28_12-53-28.012540,"98.69,53.14"
2024-05-28_12-53-28.045168,"102.04,58.60"
2024-05-28_12-53-28.073936,"63.77,57.62"
2024-05-28_12-53-28.106791,"60.59,56.77"
2024-05-28_12-53-28.139478,"77.69,77.53"
2024-05-28_12-53-28.172291,"92.55,90.15"
2024-05-28_12-53-28.204960,"91.86,81.54"
2024-05-28_12-53-28.237743,"87.06,71.25"
2024-05-28_12-53-28.270403,"96.81,81.50"
2024-05-28_12-53-28.299205,"85.31,56.43"
2024-05-28_12-53-28.331945,"95.60,46.23"
2024-05-28_12-53-28.364718,"93.25,57.25"
2024-05-28_12-53-28.397462,"55.08,58.66"
2024-05-28_12-53-28.430253,"74.62,65.12"
2024-05-28_12-53-28.463021,"88.60,90.53"
2024-05-28_12-53-28.496363,"91.90,86.81"
2024-05-28_12-53-28.524524,"84.03,86.75"
2024-05-28_12-53-28.557260,"92.72,55.35"
2024-05-28_12-53-28.590086,"99.68,52.22"
2024-05-28_12-53-28.622803,"108.62,57.02"
2024-05-28_12-53-28.655566,"93.12,54.02"
2024-05-28_12-53-28.688284,"79.81,55.23"
2024-05-28_12-53-28.720979,"60.59,56.28"
2024-05-28_12-53-28.749736,"73.97,77.14"
2024-05-28_12-53-28.782543,"81.74,92.41"
2024-05-28_12-53-28.815300,"77.81,78.36"
2024-05-28_12-53-28.848170,"90.58,80.58"
2024-05-28_12-53-28.880758,"78.68,71.70"
2024-05-28_12-53-28.913916,"89.97,64.97"
2024-05-28_12-53-28.946317,"94.73,58.26"
2024-05-28_12-53-28.975157,"86.41,55.31"
2024-05-28_12-53-29.007794,"73.14,57.42"
2024-05-28_12-53-29.040498,"72.08,59.40"
2024-05-28_12-53-29.073264,"83.37,83.48"
2024-05-28_12-53-29.106062,"92.31,86.76"
2024-05-28_12-53-29.138809,"91.85,81.97"
2024-05-28_12-53-29.171528,"98.45,80.65"
2024-05-28_12-53-29.200249,"92.91,71.81"
2024-05-28_12-53-29.232990,"85.26,69.94"
2024-05-28_12-53-29.265790,"104.18,53.07"
2024-05-28_12-53-29.298590,"86.40,52.67"
2024-05-28_12-53-29.333995,"67.45,55.08"
2024-05-28_12-53-29.364214,"73.66,74.57"
2024-05-28_12-53-29.396829,"83.39,72.12"
2024-05-28_12-53-29.425585,"87.46,81.51"
2024-05-28_12-53-29.458309,"76.94,81.82"
2024-05-28_12-53-29.491047,"95.93,77.37"
2024-05-28_12-53-29.523876,"103.23,56.23"
2024-05-28_12-53-29.556644,"88.92,54.38"
2024-05-28_12-53-29.589369,"109.50,52.63"
2024-05-28_12-53-29.622054,"76.25,57.17"
2024-05-28_12-53-29.654766,"64.42,52.63"
2024-05-28_12-53-29.683567,"70.92,78.11"
2024-05-28_12-53-29.716368,"81.83,78.52"
2024-05-28_12-53-29.749136,"85.23,82.15"
2024-05-28_12-53-29.781844,"100.41,77.77"
2024-05-28_12-53-29.814665,"89.59,70.16"
2024-05-28_12-53-29.847328,"97.80,52.75"
2024-05-28_12-53-29.880039,"84.93,51.21"
2024-05-28_12-53-29.908780,"93.88,52.05"
2024-05-28_12-53-29.942316,"67.56,60.39"
2024-05-28_12-53-29.974393,"71.26,80.14"
2024-05-28_12-53-30.007152,"75.91,88.40"
2024-05-28_12-53-30.039914,"92.55,79.25"
2024-05-28_12-53-30.072630,"94.77,87.73"
2024-05-28_12-53-30.105281,"98.32,85.03"
2024-05-28_12-53-30.134163,"87.73,70.83"
2024-05-28_12-53-30.166924,"108.58,53.27"
2024-05-28_12-53-30.199649,"101.45,56.35"
2024-05-28_12-53-30.232405,"84.60,47.39"
2024-05-28_12-53-30.265140,"67.01,62.08"
2024-05-28_12-53-30.297877,"75.01,67.98"
2024-05-28_12-53-30.330592,"86.76,91.78"
2024-05-28_12-53-30.359390,"101.10,78.78"
2024-05-28_12-53-30.392167,"101.91,82.45"
2024-05-28_12-53-30.424908,"104.01,81.01"
2024-05-28_12-53-30.457629,"85.49,51.03"
2024-05-28_12-53-30.490469,"91.16,52.56"
2024-05-28_12-53-30.548437,"99.97,57.69"
2024-05-28_12-53-30.556125,"67.62,67.90"
2024-05-28_12-53-30.584660,"71.26,68.11"
2024-05-28_12-53-30.617446,"74.25,79.06"
2024-05-28_12-53-30.650182,"90.41,87.80"
2024-05-28_12-53-30.682972,"100.71,82.00"
2024-05-28_12-53-30.715688,"84.51,72.29"
2024-05-28_12-53-30.748577,"106.40,68.14"
2024-05-28_12-53-30.781198,"99.01,57.51"
2024-05-28_12-53-30.809968,"103.49,46.81"
2024-05-28_12-53-30.842726,"90.98,58.85"
2024-05-28_12-53-30.875912,"56.32,58.34"
2024-05-28_12-53-30.908259,"71.61,96.55"
2024-05-28_12-53-30.941040,"84.54,89.50"
2024-05-28_12-53-30.973664,"94.04,84.11"
2024-05-28_12-53-31.006381,"94.99,80.91"
2024-05-28_12-53-31.035216,"98.07,69.15"
2024-05-28_12-53-31.068003,"99.44,69.12"
2024-05-28_12-53-31.100717,"85.92,56.77"
2024-05-28_12-53-31.133459,"98.21,53.53"
2024-05-28_12-53-31.166283,"82.90,54.39"
2024-05-28_12-53-31.198967,"59.95,57.02"
2024-05-28_12-53-31.231683,"74.57,95.22"
2024-05-28_12-53-31.260396,"89.44,91.77"
2024-05-28_12-53-31.293323,"82.14,73.06"
2024-05-28_12-53-31.326094,"99.37,81.30"
2024-05-28_12-53-31.358880,"89.12,57.19"
2024-05-28_12-53-31.391610,"98.77,47.16"
2024-05-28_12-53-31.424359,"110.08,57.13"
2024-05-28_12-53-31.456951,"81.62,55.05"
2024-05-28_12-53-31.485706,"72.24,56.32"
2024-05-28_12-53-31.518475,"71.63,89.33"
2024-05-28_12-53-31.551227,"82.40,86.06"
2024-05-28_12-53-31.584002,"96.79,86.25"
2024-05-28_12-53-31.616768,"84.46,81.08"
2024-05-28_12-53-31.649535,"102.99,80.54"
2024-05-28_12-53-31.682198,"95.31,72.24"
2024-05-28_12-53-31.711102,"84.11,53.52"
2024-05-28_12-53-31.743841,"103.91,53.25"
2024-05-28_12-53-31.776532,"83.30,52.83"
2024-05-28_12-53-31.809305,"66.38,55.09"
2024-05-28_12-53-31.842079,"66.73,83.46"
2024-05-28_12-53-31.874800,"82.09,82.00"
2024-05-28_12-53-31.907501,"87.14,79.32"
2024-05-28_12-53-31.936246,"88.99,75.12"
2024-05-28_12-53-31.969101,"84.00,77.45"
2024-05-28_12-53-32.001826,"92.68,72.19"
2024-05-28_12-53-32.034602,"88.04,54.50"
2024-05-28_12-53-32.068793,"103.78,53.42"
2024-05-28_12-53-32.100137,"70.62,58.13"
2024-05-28_12-53-32.132762,"75.72,75.44"
2024-05-28_12-53-32.161623,"73.57,96.06"
2024-05-28_12-53-32.194349,"91.54,81.84"
2024-05-28_12-53-32.227044,"81.07,85.85"
2024-05-28_12-53-32.259807,"91.94,74.27"
2024-05-28_12-53-32.292636,"82.50,82.39"
2024-05-28_12-53-32.325368,"87.26,52.53"
2024-05-28_12-53-32.358008,"96.22,51.64"
2024-05-28_12-53-32.386801,"92.23,52.46"
2024-05-28_12-53-32.419546,"67.60,60.97"
2024-05-28_12-53-32.452339,"69.50,61.92"
2024-05-28_12-53-32.485108,"77.37,88.10"
2024-05-28_12-53-32.517840,"79.02,76.47"
2024-05-28_12-53-32.550635,"101.20,79.00"
2024-05-28_12-53-32.583321,"108.49,84.89"
2024-05-28_12-53-32.612055,"76.11,70.32"
2024-05-28_12-53-32.644818,"86.89,52.30"
2024-05-28_12-53-32.677635,"101.19,56.35"
2024-05-28_12-53-32.710389,"83.81,47.94"
2024-05-28_12-53-32.743206,"65.54,78.03"
2024-05-28_12-53-32.776062,"74.90,81.96"
2024-05-28_12-53-32.808590,"80.66,91.76"
2024-05-28_12-53-32.841286,"102.05,81.27"
2024-05-28_12-53-32.870125,"94.80,82.29"
2024-05-28_12-53-32.902883,"93.26,67.51"
2024-05-28_12-53-32.935670,"98.62,51.73"
2024-05-28_12-53-32.968425,"99.75,53.67"
2024-05-28_12-53-33.001180,"105.30,58.09"
2024-05-28_12-53-33.033833,"64.23,58.36"
2024-05-28_12-53-33.066541,"62.59,55.55"
2024-05-28_12-53-33.095386,"75.81,78.80"
2024-05-28_12-53-33.128051,"98.32,87.71"
2024-05-28_12-53-33.160913,"98.55,80.79"
2024-05-28_12-53-33.193700,"83.75,72.55"
2024-05-28_12-53-33.226480,"106.34,68.52"
2024-05-28_12-53-33.259331,"96.91,56.73"
2024-05-28_12-53-33.291844,"105.81,46.58"
2024-05-28_12-53-33.320674,"90.21,57.71"
2024-05-28_12-53-33.353393,"55.61,58.20"
2024-05-28_12-53-33.386227,"73.72,79.09"
2024-05-28_12-53-33.418879,"86.84,91.14"
2024-05-28_12-53-33.451659,"93.60,85.61"
2024-05-28_12-53-33.484401,"97.81,80.71"
2024-05-28_12-53-33.517108,"88.24,69.18"
2024-05-28_12-53-33.545869,"78.68,81.66"
2024-05-28_12-53-33.578669,"95.98,56.62"
2024-05-28_12-53-33.611468,"101.39,54.24"
2024-05-28_12-53-33.644173,"80.04,54.75"
2024-05-28_12-53-33.676924,"59.54,57.38"
2024-05-28_12-53-33.709684,"74.61,92.52"
2024-05-28_12-53-33.744786,"83.86,92.42"
2024-05-28_12-53-33.771216,"79.57,80.02"
2024-05-28_12-53-33.803987,"91.54,73.23"
2024-05-28_12-53-33.837101,"99.24,56.95"
2024-05-28_12-53-33.869506,"89.44,47.11"
2024-05-28_12-53-33.902226,"74.53,58.63"
2024-05-28_12-53-33.934927,"84.88,55.89"
2024-05-28_12-53-33.967638,"72.89,57.40"
2024-05-28_12-53-33.996409,"72.45,86.16"
2024-05-28_12-53-34.029176,"77.40,89.00"
2024-05-28_12-53-34.061989,"87.54,89.07"
2024-05-28_12-53-34.094730,"82.55,84.95"
2024-05-28_12-53-34.127460,"91.93,80.40"
2024-05-28_12-53-34.160221,"84.19,72.30"
2024-05-28_12-53-34.192948,"84.73,53.78"
2024-05-28_12-53-34.221761,"102.59,53.00"
2024-05-28_12-53-34.254503,"79.66,53.70"
2024-05-28_12-53-34.287249,"68.26,54.32"
2024-05-28_12-53-34.319954,"67.79,77.36"
2024-05-28_12-53-34.352736,"81.86,78.39"
2024-05-28_12-53-34.385486,"88.09,80.13"
2024-05-28_12-53-34.418185,"93.20,76.60"
2024-05-28_12-53-34.446965,"83.00,78.83"
2024-05-28_12-53-34.479712,"91.49,56.39"
2024-05-28_12-53-34.512500,"76.89,54.21"
2024-05-28_12-53-34.545271,"106.08,52.62"
2024-05-28_12-53-34.578017,"71.71,57.67"
2024-05-28_12-53-34.610766,"76.88,70.17"
2024-05-28_12-53-34.643473,"74.80,83.94"
2024-05-28_12-53-34.672221,"94.09,84.82"
2024-05-28_12-53-34.704992,"89.54,86.98"
2024-05-28_12-53-34.737862,"102.48,74.04"
2024-05-28_12-53-34.770576,"94.74,82.60"
2024-05-28_12-53-34.803291,"98.38,52.92"
2024-05-28_12-53-34.836071,"84.32,51.62"
2024-05-28_12-53-34.868724,"92.35,51.93"
2024-05-28_12-53-34.897475,"64.98,61.25"
2024-05-28_12-53-34.930280,"69.20,60.87"
2024-05-28_12-53-34.963080,"79.26,87.03"
2024-05-28_12-53-34.995779,"89.92,76.44"
2024-05-28_12-53-35.028608,"105.89,80.96"
2024-05-28_12-53-35.061324,"80.22,84.24"
2024-05-28_12-53-35.094028,"75.79,54.14"
2024-05-28_12-53-35.126703,"109.42,53.03"
2024-05-28_12-53-35.155497,"95.89,55.89"
2024-05-28_12-53-35.188273,"79.76,47.65"
2024-05-28_12-53-35.221042,"63.26,84.20"
2024-05-28_12-53-35.253808,"73.92,81.17"
2024-05-28_12-53-35.286645,"86.44,90.59"
2024-05-28_12-53-35.319329,"99.01,81.54"
2024-05-28_12-53-35.348077,"90.66,83.20"
2024-05-28_12-53-35.380867,"102.54,67.51"
2024-05-28_12-53-35.413677,"98.02,51.62"
2024-05-28_12-53-35.446372,"99.95,53.70"
2024-05-28_12-53-35.480245,"101.36,56.89"
2024-05-28_12-53-35.511948,"72.87,56.16"
2024-05-28_12-53-35.544569,"70.22,61.24"
2024-05-28_12-53-35.573260,"73.16,81.14"
2024-05-28_12-53-35.606069,"99.78,93.41"
2024-05-28_12-53-35.638807,"96.28,90.86"
2024-05-28_12-53-35.671602,"86.15,73.29"
2024-05-28_12-53-35.704328,"84.32,80.16"
2024-05-28_12-53-35.737147,"85.70,71.95"
2024-05-28_12-53-35.769846,"99.22,46.53"
2024-05-28_12-53-35.802561,"103.19,55.92"
2024-05-28_12-53-35.831365,"57.33,57.01"
2024-05-28_12-53-35.864221,"62.48,57.72"
2024-05-28_12-53-35.897089,"85.99,82.86"
2024-05-28_12-53-35.929606,"92.35,82.41"
2024-05-28_12-53-35.962429,"99.63,83.61"
2024-05-28_12-53-35.995195,"90.05,70.89"
2024-05-28_12-53-36.027909,"98.72,68.61"
2024-05-28_12-53-36.056670,"96.58,56.25"
2024-05-28_12-53-36.089398,"101.10,53.66"
2024-05-28_12-53-36.122120,"89.76,53.73"
2024-05-28_12-53-36.154905,"60.66,56.51"
2024-05-28_12-53-36.187682,"76.59,68.94"
2024-05-28_12-53-36.220344,"87.96,96.45"
2024-05-28_12-53-36.253086,"91.79,78.31"
2024-05-28_12-53-36.281912,"103.69,80.99"
2024-05-28_12-53-36.314645,"95.39,72.79"
2024-05-28_12-53-36.347468,"100.18,64.63"
2024-05-28_12-53-36.380621,"93.61,56.36"
2024-05-28_12-53-36.413002,"89.45,54.15"
2024-05-28_12-53-36.445679,"86.06,53.55"
2024-05-28_12-53-36.478335,"59.33,66.36"
2024-05-28_12-53-36.507136,"77.84,90.29"
2024-05-28_12-53-36.539916,"84.74,95.46"
2024-05-28_12-53-36.573283,"95.61,80.99"
2024-05-28_12-53-36.605466,"92.60,81.30"
2024-05-28_12-53-36.638192,"97.32,71.86"
2024-05-28_12-53-36.670937,"84.66,69.76"
2024-05-28_12-53-36.703675,"96.92,53.38"
2024-05-28_12-53-36.732445,"100.76,52.43"
2024-05-28_12-53-36.765204,"68.66,55.02"
2024-05-28_12-53-36.798606,"58.99,75.00"
2024-05-28_12-53-36.830719,"78.98,84.78"
2024-05-28_12-53-36.863499,"79.44,86.13"
2024-05-28_12-53-36.896181,"83.50,71.76"
2024-05-28_12-53-36.928883,"86.35,77.68"
2024-05-28_12-53-36.957690,"97.20,84.43"
2024-05-28_12-53-36.990488,"87.78,54.03"
2024-05-28_12-53-37.023250,"108.24,53.57"
2024-05-28_12-53-37.055999,"94.45,56.46"
2024-05-28_12-53-37.088777,"68.90,50.28"
2024-05-28_12-53-37.121458,"73.99,62.32"
2024-05-28_12-53-37.154159,"79.52,87.58"
2024-05-28_12-53-37.182924,"101.17,81.91"
2024-05-28_12-53-37.215723,"94.21,79.27"
2024-05-28_12-53-37.261569,"86.81,71.79"
2024-05-28_12-53-37.284151,"91.70,56.15"
2024-05-28_12-53-37.314164,"81.80,52.06"
2024-05-28_12-53-37.346721,"81.70,56.66"
2024-05-28_12-53-37.379424,"89.85,58.48"
2024-05-28_12-53-37.408245,"65.60,59.04"
2024-05-28_12-53-37.441073,"70.65,94.48"
2024-05-28_12-53-37.473776,"78.69,80.87"
2024-05-28_12-53-37.506613,"93.85,92.56"
2024-05-28_12-53-37.539304,"93.82,86.68"
2024-05-28_12-53-37.572009,"89.90,71.77"
2024-05-28_12-53-37.604681,"85.99,82.19"
2024-05-28_12-53-37.633542,"86.41,56.69"
2024-05-28_12-53-37.666276,"102.63,46.98"
2024-05-28_12-53-37.699276,"85.44,58.88"
2024-05-28_12-53-37.731759,"56.09,58.69"
2024-05-28_12-53-37.764717,"71.02,81.74"
2024-05-28_12-53-37.797254,"84.38,89.11"
2024-05-28_12-53-37.829961,"90.34,90.74"
2024-05-28_12-53-37.858801,"94.42,82.09"
2024-05-28_12-53-37.891598,"96.72,69.30"
2024-05-28_12-53-37.924341,"98.91,51.99"
2024-05-28_12-53-37.957100,"107.44,56.91"
2024-05-28_12-53-37.989831,"94.68,53.86"
2024-05-28_12-53-38.022660,"80.85,54.94"
2024-05-28_12-53-38.055254,"62.73,57.14"
2024-05-28_12-53-38.084125,"73.36,74.79"
2024-05-28_12-53-38.116838,"84.13,94.38"
2024-05-28_12-53-38.149623,"90.52,86.14"
2024-05-28_12-53-38.182315,"95.18,81.89"
2024-05-28_12-53-38.215081,"86.87,71.91"
2024-05-28_12-53-38.247841,"78.01,78.66"
2024-05-28_12-53-38.280538,"92.94,56.77"
2024-05-28_12-53-38.309413,"86.91,54.55"
2024-05-28_12-53-38.342072,"86.17,54.83"
2024-05-28_12-53-38.374813,"60.73,64.30"
2024-05-28_12-53-38.407777,"80.09,96.32"
2024-05-28_12-53-38.440511,"72.63,98.51"
2024-05-28_12-53-38.473300,"89.37,76.59"
2024-05-28_12-53-38.505822,"84.50,85.84"
2024-05-28_12-53-38.538531,"102.08,73.23"
2024-05-28_12-53-38.567269,"94.38,53.65"
2024-05-28_12-53-38.600077,"88.00,52.95"
2024-05-28_12-53-38.632826,"92.53,51.69"
2024-05-28_12-53-38.665617,"73.50,54.34"
2024-05-28_12-53-38.698543,"58.66,75.28"
2024-05-28_12-53-38.731086,"76.98,88.29"
2024-05-28_12-53-38.763770,"83.32,85.96"
2024-05-28_12-53-38.792556,"81.35,75.83"
2024-05-28_12-53-38.825414,"103.06,80.07"
2024-05-28_12-53-38.858179,"106.73,84.89"
2024-05-28_12-53-38.890882,"76.93,54.24"
2024-05-28_12-53-38.923666,"108.46,52.96"
2024-05-28_12-53-38.956385,"101.86,56.45"
2024-05-28_12-53-38.989024,"73.62,48.60"
2024-05-28_12-53-39.017849,"63.35,85.49"
2024-05-28_12-53-39.050604,"73.84,80.69"
2024-05-28_12-53-39.083466,"86.27,85.37"
2024-05-28_12-53-39.116142,"92.48,76.33"
2024-05-28_12-53-39.148931,"96.61,82.54"
2024-05-28_12-53-39.181611,"105.00,67.97"
2024-05-28_12-53-39.214449,"85.75,51.20"
2024-05-28_12-53-39.243168,"78.89,52.17"
2024-05-28_12-53-39.275866,"99.47,56.00"
2024-05-28_12-53-39.308636,"69.37,56.51"
2024-05-28_12-53-39.341420,"63.31,82.38"
2024-05-28_12-53-39.374238,"74.95,80.00"
2024-05-28_12-53-39.406908,"93.27,91.36"
2024-05-28_12-53-39.439621,"97.42,86.42"
2024-05-28_12-53-39.468379,"84.36,74.20"
2024-05-28_12-53-39.501179,"94.24,80.58"
2024-05-28_12-53-39.533935,"86.31,56.33"
2024-05-28_12-53-39.566714,"100.51,46.53"
2024-05-28_12-53-39.599472,"108.71,56.88"
2024-05-28_12-53-39.632140,"66.00,55.98"
2024-05-28_12-53-39.664845,"68.18,57.35"
2024-05-28_12-53-39.693923,"84.76,69.05"
2024-05-28_12-53-39.726531,"86.62,90.58"
2024-05-28_12-53-39.759210,"94.05,89.78"
2024-05-28_12-53-39.791947,"86.70,75.22"
2024-05-28_12-53-39.824713,"97.35,82.12"
2024-05-28_12-53-39.857491,"85.03,72.13"
2024-05-28_12-53-39.890128,"85.10,53.37"
2024-05-28_12-53-39.918902,"104.25,53.08"
2024-05-28_12-53-39.951705,"71.85,54.46"
2024-05-28_12-53-39.984463,"63.33,83.62"
2024-05-28_12-53-40.017190,"82.39,94.42"
2024-05-28_12-53-40.049982,"93.11,82.64"
2024-05-28_12-53-40.082708,"89.82,83.31"
2024-05-28_12-53-40.115407,"97.81,74.52"
2024-05-28_12-53-40.144193,"74.49,77.47"
2024-05-28_12-53-40.176937,"103.64,72.05"
2024-05-28_12-53-40.209734,"88.48,54.25"
2024-05-28_12-53-40.242474,"109.64,53.19"
2024-05-28_12-53-40.275252,"76.81,56.71"
2024-05-28_12-53-40.307953,"66.92,52.07"
2024-05-28_12-53-40.340892,"69.77,79.73"
2024-05-28_12-53-40.369501,"90.25,76.08"
2024-05-28_12-53-40.402257,"83.50,86.27"
2024-05-28_12-53-40.435003,"102.96,75.93"
2024-05-28_12-53-40.467785,"90.07,82.07"
2024-05-28_12-53-40.507143,"97.85,69.47"
2024-05-28_12-53-40.535571,"67.43,51.79"
2024-05-28_12-53-40.565945,"93.79,56.22"
2024-05-28_12-53-40.594741,"80.24,59.81"
2024-05-28_12-53-40.627513,"63.10,58.98"
2024-05-28_12-53-40.660206,"69.63,95.61"
2024-05-28_12-53-40.692998,"79.85,81.04"
2024-05-28_12-53-40.725808,"97.94,91.32"
2024-05-28_12-53-40.758607,"99.64,83.47"
2024-05-28_12-53-40.791245,"89.22,71.49"
2024-05-28_12-53-40.820042,"106.54,69.06"
2024-05-28_12-53-40.852736,"97.81,56.58"
2024-05-28_12-53-40.885581,"106.40,46.52"
2024-05-28_12-53-40.918266,"94.76,57.50"
2024-05-28_12-53-40.951143,"55.69,59.13"
2024-05-28_12-53-40.983832,"62.84,56.12"
2024-05-28_12-53-41.016551,"84.39,85.21"
2024-05-28_12-53-41.045245,"93.37,80.01"
2024-05-28_12-53-41.077996,"97.20,85.52"
2024-05-28_12-53-41.110831,"97.82,72.43"
2024-05-28_12-53-41.143564,"100.01,68.10"
2024-05-28_12-53-41.176317,"85.32,56.82"
2024-05-28_12-53-41.209076,"84.38,53.77"
2024-05-28_12-53-41.241764,"99.15,53.57"
2024-05-28_12-53-41.270579,"66.37,55.75"
2024-05-28_12-53-41.303260,"63.43,77.69"
2024-05-28_12-53-41.336042,"82.11,94.31"
2024-05-28_12-53-41.368811,"93.60,78.47"
2024-05-28_12-53-41.401575,"90.97,89.32"
2024-05-28_12-53-41.434332,"88.49,75.53"
2024-05-28_12-53-41.467057,"98.84,78.35"
2024-05-28_12-53-41.495804,"93.17,56.73"
2024-05-28_12-53-41.528545,"77.15,54.33"
2024-05-28_12-53-41.561307,"109.42,52.88"
2024-05-28_12-53-41.594086,"72.92,57.68"
2024-05-28_12-53-41.626846,"66.11,53.40"
2024-05-28_12-53-41.659591,"72.39,78.72"
2024-05-28_12-53-41.692313,"94.04,86.98"
2024-05-28_12-53-41.721040,"88.13,84.69"
2024-05-28_12-53-41.753829,"102.50,76.57"
2024-05-28_12-53-41.786645,"101.17,82.72"
2024-05-28_12-53-41.819374,"108.49,52.96"
2024-05-28_12-53-41.852085,"86.18,51.66"
2024-05-28_12-53-41.884904,"95.60,52.56"
2024-05-28_12-53-41.917587,"84.44,59.74"
2024-05-28_12-53-41.946315,"62.61,58.58"
2024-05-28_12-53-41.979199,"70.80,96.24"
2024-05-28_12-53-42.011862,"80.00,80.61"
2024-05-28_12-53-42.044624,"79.86,84.59"
2024-05-28_12-53-42.077773,"100.47,87.33"
2024-05-28_12-53-42.110173,"89.22,71.24"
2024-05-28_12-53-42.142849,"107.56,69.08"
2024-05-28_12-53-42.175544,"86.88,56.70"
2024-05-28_12-53-42.204354,"97.06,46.42"
2024-05-28_12-53-42.237120,"94.53,58.03"
2024-05-28_12-53-42.269893,"55.35,58.85"
2024-05-28_12-53-42.302639,"76.81,66.08"
2024-05-28_12-53-42.335444,"86.00,84.22"
2024-05-28_12-53-42.368224,"91.35,82.42"
2024-05-28_12-53-42.400831,"97.16,86.74"
2024-05-28_12-53-42.429612,"99.68,71.78"
2024-05-28_12-53-42.462363,"78.17,81.67"
2024-05-28_12-53-42.497263,"85.87,56.77"
2024-05-28_12-53-42.527912,"94.81,53.70"
2024-05-28_12-53-42.560746,"99.17,53.81"
2024-05-28_12-53-42.593383,"70.36,55.31"
2024-05-28_12-53-42.626089,"64.06,86.13"
2024-05-28_12-53-42.654888,"85.02,80.68"
2024-05-28_12-53-42.687650,"92.66,81.37"
2024-05-28_12-53-42.720415,"91.26,88.08"
2024-05-28_12-53-42.753215,"89.16,74.55"
2024-05-28_12-53-42.785998,"97.64,78.15"
2024-05-28_12-53-42.818675,"112.85,56.61"
2024-05-28_12-53-42.851365,"77.06,54.13"
2024-05-28_12-53-42.880207,"106.81,52.41"
2024-05-28_12-53-42.912988,"71.07,57.69"
2024-05-28_12-53-42.945805,"65.24,70.63"
2024-05-28_12-53-42.978535,"66.83,79.89"
2024-05-28_12-53-43.011265,"82.22,78.25"
2024-05-28_12-53-43.043934,"88.05,81.14"
2024-05-28_12-53-43.076634,"94.88,74.48"
2024-05-28_12-53-43.105407,"96.96,82.15"
2024-05-28_12-53-43.138200,"97.61,69.10"
2024-05-28_12-53-43.170947,"86.74,51.50"
2024-05-28_12-53-43.203803,"99.78,52.85"
2024-05-28_12-53-43.236499,"99.18,57.80"
2024-05-28_12-53-43.269218,"66.12,57.19"
2024-05-28_12-53-43.301890,"64.40,77.32"
2024-05-28_12-53-43.330694,"74.76,79.12"
2024-05-28_12-53-43.363466,"87.11,90.56"
2024-05-28_12-53-43.396233,"95.53,80.98"
2024-05-28_12-53-43.428963,"87.40,74.63"
2024-05-28_12-53-43.461768,"105.65,67.40"
2024-05-28_12-53-43.494530,"86.26,56.34"
2024-05-28_12-53-43.527191,"77.48,46.71"
2024-05-28_12-53-43.556014,"109.09,56.85"
2024-05-28_12-53-43.588847,"66.97,56.96"
2024-05-28_12-53-43.621671,"67.69,58.75"
2024-05-28_12-53-43.654316,"81.69,82.37"
2024-05-28_12-53-43.687024,"84.19,90.43"
2024-05-28_12-53-43.719749,"97.89,84.27"
2024-05-28_12-53-43.752514,"90.52,72.89"
2024-05-28_12-53-43.781307,"93.78,80.18"
2024-05-28_12-53-43.814008,"104.31,56.98"
2024-05-28_12-53-43.846797,"95.30,53.74"
2024-05-28_12-53-43.879574,"105.91,53.30"
2024-05-28_12-53-43.912289,"87.48,52.44"
2024-05-28_12-53-43.945044,"68.29,55.60"
2024-05-28_12-53-43.977717,"68.07,96.36"
2024-05-28_12-53-44.006553,"81.01,87.46"
2024-05-28_12-53-44.039316,"96.56,81.05"
2024-05-28_12-53-44.072068,"88.38,82.13"
2024-05-28_12-53-44.104915,"96.31,80.05"
2024-05-28_12-53-44.137586,"109.26,72.63"
2024-05-28_12-53-44.170299,"76.28,54.54"
2024-05-28_12-53-44.203003,"87.99,53.03"
2024-05-28_12-53-44.231773,"100.54,56.49"
2024-05-28_12-53-44.264568,"72.02,50.57"
2024-05-28_12-53-44.297337,"61.33,61.49"
2024-05-28_12-53-44.330097,"75.81,81.11"
2024-05-28_12-53-44.362928,"85.69,87.07"
2024-05-28_12-53-44.395638,"83.72,77.57"
2024-05-28_12-53-44.428265,"82.93,76.65"
2024-05-28_12-53-44.457108,"95.44,56.22"
2024-05-28_12-53-44.489842,"86.48,51.49"
2024-05-28_12-53-44.522583,"100.87,53.12"
2024-05-28_12-53-44.555352,"104.88,56.80"
2024-05-28_12-53-44.588137,"76.70,55.77"
2024-05-28_12-53-44.620870,"67.95,57.53"
2024-05-28_12-53-44.653613,"65.93,58.44"
2024-05-28_12-53-44.682322,"85.35,88.55"
2024-05-28_12-53-44.715125,"83.83,87.79"
2024-05-28_12-53-44.747855,"80.11,75.79"
2024-05-28_12-53-44.780656,"105.99,70.65"
2024-05-28_12-53-44.813370,"96.33,57.68"
2024-05-28_12-53-44.846126,"101.15,47.07"
2024-05-28_12-53-44.878824,"112.90,58.33"
2024-05-28_12-53-44.914239,"87.03,56.21"
2024-05-28_12-53-44.940322,"74.36,57.33"
2024-05-28_12-53-44.973115,"75.61,60.62"
2024-05-28_12-53-45.005869,"84.11,85.78"
2024-05-28_12-53-45.038613,"94.56,88.88"
2024-05-28_12-53-45.071420,"84.38,78.63"
2024-05-28_12-53-45.104097,"96.01,85.06"
2024-05-28_12-53-45.136810,"98.78,73.50"
2024-05-28_12-53-45.165619,"94.02,54.20"
2024-05-28_12-53-45.198377,"110.74,54.78"
2024-05-28_12-53-45.231134,"100.07,53.12"
2024-05-28_12-53-45.263959,"82.49,55.11"
2024-05-28_12-53-45.296619,"64.97,63.82"
2024-05-28_12-53-45.329355,"69.96,61.79"
2024-05-28_12-53-45.362100,"74.83,91.22"
2024-05-28_12-53-45.391022,"76.60,80.20"
2024-05-28_12-53-45.423814,"91.41,86.59"
2024-05-28_12-53-45.456787,"99.11,76.69"
2024-05-28_12-53-45.491247,"85.47,56.25"
2024-05-28_12-53-45.521945,"96.11,56.80"
2024-05-28_12-53-45.554671,"82.29,58.54"
2024-05-28_12-53-45.587420,"107.56,47.30"
2024-05-28_12-53-45.616152,"86.83,61.27"
2024-05-28_12-53-45.648981,"59.37,58.31"
2024-05-28_12-53-45.683755,"81.79,68.77"
2024-05-28_12-53-45.714442,"73.29,79.65"
2024-05-28_12-53-45.747232,"82.78,93.68"
2024-05-28_12-53-45.779969,"73.90,84.12"
2024-05-28_12-53-45.812688,"85.12,60.17"
2024-05-28_12-53-45.844320,"92.84,55.40"
2024-05-28_12-53-45.879550,"87.93,62.89"
2024-05-28_12-53-45.907216,"105.93,64.54"
2024-05-28_12-53-45.939808,"85.70,60.61"
2024-05-28_12-53-45.972536,"69.59,56.11"
2024-05-28_12-53-46.005260,"64.74,79.47"
2024-05-28_12-53-46.037850,"80.04,87.45"
2024-05-28_12-53-46.066679,"79.36,80.34"
2024-05-28_12-53-46.099677,"85.57,82.20"
2024-05-28_12-53-46.132201,"89.42,77.83"
2024-05-28_12-53-46.164993,"96.34,81.97"
2024-05-28_12-53-46.202140,"106.07,57.49"
2024-05-28_12-53-46.231228,"89.76,55.05"
2024-05-28_12-53-46.263158,"91.84,55.58"
2024-05-28_12-53-46.306358,"99.41,57.96"
2024-05-28_12-53-46.325283,"71.49,51.32"
2024-05-28_12-53-46.357625,"64.54,73.06"
2024-05-28_12-53-46.390264,"78.20,78.39"
2024-05-28_12-53-46.427496,"83.41,82.39"
2024-05-28_12-53-46.456695,"75.46,92.80"
2024-05-28_12-53-46.488584,"77.98,78.75"
2024-05-28_12-53-46.517338,"95.15,61.42"
2024-05-28_12-53-46.550072,"94.61,54.68"
2024-05-28_12-53-46.582810,"101.02,54.14"
2024-05-28_12-53-46.616757,"109.97,57.57"
2024-05-28_12-53-46.648278,"79.34,58.86"
2024-05-28_12-53-46.680953,"71.27,58.80"
2024-05-28_12-53-46.713685,"68.41,60.26"
2024-05-28_12-53-46.742537,"82.79,94.49"
2024-05-28_12-53-46.775224,"95.42,88.32"
2024-05-28_12-53-46.808028,"74.52,84.86"
2024-05-28_12-53-46.840828,"88.64,74.50"
2024-05-28_12-53-46.873687,"85.50,59.33"
2024-05-28_12-53-46.906314,"85.86,50.09"
2024-05-28_12-53-46.938998,"115.63,58.05"
2024-05-28_12-53-46.967770,"92.30,54.79"
2024-05-28_12-53-47.001653,"77.85,55.22"
2024-05-28_12-53-47.034795,"73.46,65.89"
2024-05-28_12-53-47.066076,"77.71,82.98"
2024-05-28_12-53-47.098827,"83.02,93.58"
2024-05-28_12-53-47.131577,"94.11,78.53"
2024-05-28_12-53-47.164314,"100.64,82.36"
2024-05-28_12-53-47.193090,"101.47,72.33"
2024-05-28_12-53-47.225796,"93.76,53.52"
2024-05-28_12-53-47.258547,"98.98,53.06"
2024-05-28_12-53-47.291279,"104.86,51.29"
2024-05-28_12-53-47.324136,"86.96,52.97"
2024-05-28_12-53-47.356815,"66.48,60.79"
2024-05-28_12-53-47.389513,"73.08,82.30"
2024-05-28_12-53-47.418302,"74.00,87.69"
2024-05-28_12-53-47.451039,"90.80,80.62"
2024-05-28_12-53-47.483800,"88.43,85.17"
2024-05-28_12-53-47.516630,"111.94,86.33"
2024-05-28_12-53-47.549346,"85.01,70.83"
2024-05-28_12-53-47.582095,"87.29,68.93"
2024-05-28_12-53-47.614775,"86.05,56.47"
2024-05-28_12-53-47.647503,"103.36,46.16"
2024-05-28_12-53-47.676325,"89.08,57.87"
2024-05-28_12-53-47.709092,"55.24,58.55"
2024-05-28_12-53-47.741880,"61.33,56.28"
2024-05-28_12-53-47.774633,"83.64,84.84"
2024-05-28_12-53-47.807423,"77.90,82.14"
2024-05-28_12-53-47.840092,"97.83,82.85"
2024-05-28_12-53-47.868875,"95.25,71.00"
2024-05-28_12-53-47.901660,"95.95,67.59"
2024-05-28_12-53-47.934399,"95.52,57.85"
2024-05-28_12-53-47.967150,"79.66,54.42"
2024-05-28_12-53-47.999973,"106.54,53.68"
2024-05-28_12-53-48.032698,"77.12,53.50"
2024-05-28_12-53-48.065413,"66.37,56.25"
2024-05-28_12-53-48.098006,"67.00,79.15"
2024-05-28_12-53-48.126824,"82.12,82.08"
2024-05-28_12-53-48.159693,"91.27,82.82"
2024-05-28_12-53-48.192423,"71.83,89.06"
2024-05-28_12-53-48.225162,"87.91,60.18"
2024-05-28_12-53-48.257883,"95.86,57.03"
2024-05-28_12-53-48.290625,"75.51,70.54"
2024-05-28_12-53-48.319327,"88.48,52.63"
2024-05-28_12-53-48.352079,"102.01,56.54"
2024-05-28_12-53-48.384835,"84.78,47.12"
2024-05-28_12-53-48.417650,"70.39,60.98"
2024-05-28_12-53-48.450399,"65.33,63.66"
2024-05-28_12-53-48.483260,"76.92,89.67"
2024-05-28_12-53-48.515879,"91.66,86.62"
2024-05-28_12-53-48.548595,"90.14,90.95"
2024-05-28_12-53-48.577368,"94.99,79.27"
2024-05-28_12-53-48.610161,"81.53,68.40"
2024-05-28_12-53-48.642918,"100.85,52.41"
2024-05-28_12-53-48.675648,"107.55,56.72"
2024-05-28_12-53-48.708438,"103.08,54.36"
2024-05-28_12-53-48.741195,"85.53,54.00"
2024-05-28_12-53-48.773864,"60.87,57.17"
2024-05-28_12-53-48.802627,"77.18,54.98"
2024-05-28_12-53-48.835476,"83.33,91.90"
2024-05-28_12-53-48.868132,"72.17,80.95"
2024-05-28_12-53-48.900974,"89.85,92.20"
2024-05-28_12-53-48.933783,"91.26,74.39"
2024-05-28_12-53-48.966430,"86.63,78.32"
2024-05-28_12-53-48.999130,"104.20,56.04"
2024-05-28_12-53-49.028042,"75.47,54.10"
2024-05-28_12-53-49.060738,"103.07,52.99"
2024-05-28_12-53-49.093461,"86.20,56.96"
2024-05-28_12-53-49.126247,"66.16,51.00"
2024-05-28_12-53-49.158970,"74.15,62.03"
2024-05-28_12-53-49.191714,"79.19,77.70"
2024-05-28_12-53-49.224428,"87.90,84.67"
2024-05-28_12-53-49.253266,"90.99,72.95"
2024-05-28_12-53-49.285980,"89.50,83.91"
2024-05-28_12-53-49.318717,"99.85,52.65"
2024-05-28_12-53-49.351526,"95.67,51.59"
2024-05-28_12-53-49.384243,"78.74,52.24"
2024-05-28_12-53-49.417057,"102.23,56.21"
2024-05-28_12-53-49.449666,"80.84,55.27"
2024-05-28_12-53-49.478429,"69.58,57.41"
2024-05-28_12-53-49.512279,"70.40,83.42"
2024-05-28_12-53-49.544134,"78.34,92.16"
2024-05-28_12-53-49.576791,"91.10,94.78"
2024-05-28_12-53-49.609548,"82.42,81.21"
2024-05-28_12-53-49.642260,"102.00,81.19"
2024-05-28_12-53-49.674937,"89.78,72.27"
2024-05-28_12-53-49.703714,"78.01,64.63"
2024-05-28_12-53-49.736537,"102.71,56.56"
2024-05-28_12-53-49.769246,"89.63,54.52"
2024-05-28_12-53-49.801974,"84.43,53.78"
2024-05-28_12-53-49.834773,"60.73,62.46"
2024-05-28_12-53-49.867540,"80.58,64.09"
2024-05-28_12-53-49.900218,"80.93,90.64"
2024-05-28_12-53-49.929157,"83.88,76.30"
2024-05-28_12-53-49.961786,"82.77,85.29"
2024-05-28_12-53-49.994488,"100.42,75.54"
2024-05-28_12-53-50.027329,"93.50,69.52"
2024-05-28_12-53-50.060062,"107.26,52.56"
2024-05-28_12-53-50.092809,"97.34,51.46"
2024-05-28_12-53-50.125519,"100.12,53.51"
2024-05-28_12-53-50.154235,"85.75,59.11"
2024-05-28_12-53-50.187004,"62.64,58.42"
2024-05-28_12-53-50.219746,"74.82,65.64"
2024-05-28_12-53-50.252552,"80.13,77.93"
2024-05-28_12-53-50.285306,"85.30,89.43"
2024-05-28_12-53-50.318079,"95.67,79.76"
2024-05-28_12-53-50.350766,"88.33,73.78"
2024-05-28_12-53-50.383515,"105.59,80.83"
2024-05-28_12-53-50.412269,"84.02,56.03"
2024-05-28_12-53-50.445014,"78.13,46.53"
2024-05-28_12-53-50.477873,"107.34,56.67"
2024-05-28_12-53-50.521907,"75.89,55.88"
2024-05-28_12-53-50.543693,"78.05,57.25"
2024-05-28_12-53-50.576039,"71.29,65.82"
2024-05-28_12-53-50.604781,"83.20,80.57"
2024-05-28_12-53-50.637594,"86.61,93.99"
2024-05-28_12-53-50.670309,"83.44,83.34"
2024-05-28_12-53-50.703107,"90.51,82.40"
2024-05-28_12-53-50.735853,"106.99,71.87"
2024-05-28_12-53-50.768628,"84.68,69.75"
2024-05-28_12-53-50.801295,"99.12,52.88"
2024-05-28_12-53-50.834020,"103.97,51.21"
2024-05-28_12-53-50.862807,"91.09,52.77"
2024-05-28_12-53-50.895595,"69.04,60.94"
2024-05-28_12-53-50.928388,"73.73,82.96"
2024-05-28_12-53-50.961120,"71.81,92.69"
2024-05-28_12-53-50.993898,"79.57,77.96"
2024-05-28_12-53-51.026598,"99.25,87.31"
2024-05-28_12-53-51.059313,"100.77,79.92"
2024-05-28_12-53-51.088070,"87.96,71.49"
2024-05-28_12-53-51.120824,"105.33,81.66"
2024-05-28_12-53-51.153655,"96.44,56.55"
2024-05-28_12-53-51.186368,"99.51,46.76"
2024-05-28_12-53-51.219142,"113.36,56.44"
2024-05-28_12-53-51.251843,"71.99,56.45"
2024-05-28_12-53-51.284540,"69.51,57.74"
2024-05-28_12-53-51.313327,"71.42,74.01"
2024-05-28_12-53-51.346105,"82.06,79.61"
2024-05-28_12-53-51.378893,"77.68,95.21"
2024-05-28_12-53-51.411723,"82.52,78.78"
2024-05-28_12-53-51.444402,"93.11,81.24"
2024-05-28_12-53-51.477150,"99.89,72.11"
2024-05-28_12-53-51.509817,"93.92,53.51"
2024-05-28_12-53-51.538629,"107.66,54.22"
2024-05-28_12-53-51.571562,"104.41,51.74"
2024-05-28_12-53-51.604266,"84.45,54.11"
2024-05-28_12-53-51.636962,"67.30,61.73"
2024-05-28_12-53-51.669727,"72.34,64.68"
2024-05-28_12-53-51.702398,"74.81,91.51"
2024-05-28_12-53-51.735137,"81.62,85.03"
2024-05-28_12-53-51.763899,"87.98,85.67"
2024-05-28_12-53-51.796670,"94.74,81.47"
2024-05-28_12-53-51.829422,"81.87,71.03"
2024-05-28_12-53-51.862194,"96.83,67.86"
2024-05-28_12-53-51.894945,"86.64,56.11"
2024-05-28_12-53-51.927700,"100.63,46.58"
2024-05-28_12-53-51.960482,"105.86,56.54"
2024-05-28_12-53-51.989887,"64.74,57.30"
2024-05-28_12-53-52.022175,"67.14,82.61"
2024-05-28_12-53-52.054696,"83.38,75.68"
2024-05-28_12-53-52.087477,"86.74,77.26"
2024-05-28_12-53-52.120248,"98.40,90.47"
2024-05-28_12-53-52.152944,"86.27,73.82"
2024-05-28_12-53-52.185654,"98.97,80.16"
2024-05-28_12-53-52.214466,"102.41,71.95"
2024-05-28_12-53-52.247203,"95.32,53.73"
2024-05-28_12-53-52.279987,"108.74,53.05"
2024-05-28_12-53-52.312734,"101.93,51.55"
2024-05-28_12-53-52.345710,"84.74,52.88"
2024-05-28_12-53-52.378332,"65.24,61.71"
2024-05-28_12-53-52.411002,"71.79,64.26"
2024-05-28_12-53-52.439708,"76.76,90.66"
2024-05-28_12-53-52.472508,"79.05,86.97"
2024-05-28_12-53-52.505230,"99.79,87.24"
2024-05-28_12-53-52.537995,"101.32,82.28"
2024-05-28_12-53-52.570712,"89.50,71.17"
2024-05-28_12-53-52.603559,"105.31,68.47"
2024-05-28_12-53-52.636201,"96.37,56.95"
2024-05-28_12-53-52.665068,"97.75,46.74"
2024-05-28_12-53-52.697794,"107.23,56.41"
2024-05-28_12-53-52.730492,"65.63,57.31"
2024-05-28_12-53-52.763249,"67.49,74.01"
2024-05-28_12-53-52.795998,"83.28,77.53"
2024-05-28_12-53-52.828768,"83.92,77.80"
2024-05-28_12-53-52.861501,"84.79,92.43"
2024-05-28_12-53-52.890226,"84.93,79.83"
2024-05-28_12-53-52.923011,"93.21,80.74"
2024-05-28_12-53-52.955789,"98.70,71.50"
2024-05-28_12-53-52.988534,"95.49,69.97"
2024-05-28_12-53-53.021319,"98.25,52.83"
2024-05-28_12-53-53.054098,"97.12,51.27"
2024-05-28_12-53-53.086772,"94.01,52.46"
2024-05-28_12-53-53.115497,"74.73,60.13"
2024-05-28_12-53-53.148333,"63.04,58.35"
2024-05-28_12-53-53.181064,"70.47,77.04"
2024-05-28_12-53-53.213845,"80.42,78.89"
2024-05-28_12-53-53.246538,"98.31,91.86"
2024-05-28_12-53-53.279356,"98.62,85.63"
2024-05-28_12-53-53.312023,"92.35,75.07"
2024-05-28_12-53-53.344717,"104.45,80.21"
2024-05-28_12-53-53.373497,"83.45,71.78"
2024-05-28_12-53-53.406264,"90.36,46.19"
2024-05-28_12-53-53.439076,"111.42,56.59"
2024-05-28_12-53-53.471844,"92.17,54.81"
2024-05-28_12-53-53.504629,"80.83,55.13"
2024-05-28_12-53-53.537283,"61.14,68.10"
2024-05-28_12-53-53.566066,"80.79,74.47"
2024-05-28_12-53-53.598781,"82.64,92.43"
2024-05-28_12-53-53.631795,"83.44,80.14"
2024-05-28_12-53-53.664388,"87.61,79.65"
2024-05-28_12-53-53.697118,"100.30,73.74"
2024-05-28_12-53-53.729897,"91.92,81.68"
2024-05-28_12-53-53.762606,"96.41,52.16"
2024-05-28_12-53-53.791282,"85.25,51.12"
2024-05-28_12-53-53.824049,"88.80,52.60"
2024-05-28_12-53-53.856852,"104.34,56.90"
2024-05-28_12-53-53.889581,"67.70,57.43"
2024-05-28_12-53-53.922403,"65.97,73.42"
2024-05-28_12-53-53.955181,"78.81,73.37"
2024-05-28_12-53-53.988494,"86.55,89.15"
2024-05-28_12-53-54.020553,"80.01,97.94"
2024-05-28_12-53-54.049400,"77.80,85.60"
2024-05-28_12-53-54.082161,"96.61,82.20"
2024-05-28_12-53-54.114857,"89.09,71.88"
2024-05-28_12-53-54.147686,"89.04,63.99"
2024-05-28_12-53-54.180415,"112.82,56.91"
2024-05-28_12-53-54.214067,"95.17,53.96"
2024-05-28_12-53-54.245849,"97.09,52.85"
2024-05-28_12-53-54.274574,"65.00,57.84"
2024-05-28_12-53-54.307415,"75.18,75.53"
2024-05-28_12-53-54.340139,"73.98,94.69"
2024-05-28_12-53-54.372888,"82.52,79.33"
2024-05-28_12-53-54.405716,"87.80,84.13"
2024-05-28_12-53-54.438384,"89.83,85.39"
2024-05-28_12-53-54.471082,"85.35,82.41"
2024-05-28_12-53-54.499921,"94.29,80.43"
2024-05-28_12-53-54.532654,"96.81,51.16"
2024-05-28_12-53-54.565435,"99.57,52.40"
2024-05-28_12-53-54.598138,"103.10,56.72"
2024-05-28_12-53-54.630970,"92.21,54.35"
2024-05-28_12-53-54.663698,"77.70,80.74"
2024-05-28_12-53-54.698506,"64.25,57.51"
2024-05-28_12-53-54.725226,"72.79,84.02"
2024-05-28_12-53-54.757915,"87.16,90.69"
2024-05-28_12-53-54.790671,"83.06,88.98"
2024-05-28_12-53-54.823466,"85.69,79.77"
2024-05-28_12-53-54.856193,"90.94,80.48"
2024-05-28_12-53-54.888944,"99.83,77.93"
2024-05-28_12-53-54.921630,"100.24,84.31"
2024-05-28_12-53-54.950396,"87.21,53.81"
2024-05-28_12-53-54.983159,"108.81,52.73"
2024-05-28_12-53-55.015947,"100.33,56.42"
2024-05-28_12-53-55.048704,"84.87,46.87"
2024-05-28_12-53-55.081478,"72.08,61.44"
2024-05-28_12-53-55.114190,"67.77,80.54"
2024-05-28_12-53-55.146884,"78.09,90.91"
2024-05-28_12-53-55.175665,"86.79,88.66"
2024-05-28_12-53-55.208509,"82.24,89.80"
2024-05-28_12-53-55.241201,"92.46,82.55"
2024-05-28_12-53-55.273997,"95.81,69.28"
2024-05-28_12-53-55.306714,"98.54,68.07"
2024-05-28_12-53-55.339485,"104.74,56.12"
2024-05-28_12-53-55.372187,"83.15,53.30"
2024-05-28_12-53-55.400915,"104.08,53.08"
2024-05-28_12-53-55.433729,"90.89,52.23"
2024-05-28_12-53-55.467028,"67.97,55.60"
2024-05-28_12-53-55.499633,"78.06,89.49"
2024-05-28_12-53-55.532046,"78.31,83.21"
2024-05-28_12-53-55.564738,"84.35,85.71"
2024-05-28_12-53-55.597416,"82.15,74.90"
2024-05-28_12-53-55.626183,"95.38,86.60"
2024-05-28_12-53-55.658974,"95.21,85.75"
2024-05-28_12-53-55.691782,"86.25,54.21"
2024-05-28_12-53-55.724568,"105.54,52.02"
2024-05-28_12-53-55.757264,"94.70,56.50"
2024-05-28_12-53-55.790041,"106.80,46.58"
2024-05-28_12-53-55.822711,"102.89,56.70"
2024-05-28_12-53-55.851456,"62.56,56.99"
2024-05-28_12-53-55.884254,"67.22,84.19"
2024-05-28_12-53-55.917001,"82.40,83.23"
2024-05-28_12-53-55.949823,"83.35,78.43"
2024-05-28_12-53-55.982620,"83.00,91.48"
2024-05-28_12-53-56.015298,"83.75,79.15"
2024-05-28_12-53-56.047982,"91.17,82.10"
2024-05-28_12-53-56.077715,"98.65,71.88"
2024-05-28_12-53-56.109591,"92.04,70.16"
2024-05-28_12-53-56.142320,"105.55,53.92"
2024-05-28_12-53-56.174996,"97.41,51.29"
2024-05-28_12-53-56.207757,"99.41,52.41"
2024-05-28_12-53-56.240568,"78.40,59.46"
2024-05-28_12-53-56.273267,"62.44,59.11"
2024-05-28_12-53-56.302005,"69.58,89.58"
2024-05-28_12-53-56.334775,"83.33,78.05"
2024-05-28_12-53-56.367584,"90.17,98.32"
2024-05-28_12-53-56.400367,"88.81,88.08"
2024-05-28_12-53-56.433131,"79.13,75.44"
2024-05-28_12-53-56.465867,"99.76,80.62"
2024-05-28_12-53-56.498524,"82.88,71.99"
2024-05-28_12-53-56.531244,"100.20,46.36"
2024-05-28_12-53-56.560073,"112.85,56.63"
2024-05-28_12-53-56.592798,"94.09,54.53"
2024-05-28_12-53-56.625561,"91.66,54.54"
2024-05-28_12-53-56.658305,"64.67,59.65"
2024-05-28_12-53-56.691175,"77.27,80.09"
2024-05-28_12-53-56.723841,"71.89,88.67"
2024-05-28_12-53-56.752526,"80.22,80.02"
2024-05-28_12-53-56.785310,"91.14,84.21"
2024-05-28_12-53-56.818111,"91.48,84.22"
2024-05-28_12-53-56.850823,"86.20,82.75"
2024-05-28_12-53-56.883586,"103.39,67.79"
2024-05-28_12-53-56.916378,"94.76,51.60"
2024-05-28_12-53-56.949103,"101.27,52.70"
2024-05-28_12-53-56.981791,"93.81,56.47"
2024-05-28_12-53-57.010625,"93.99,54.32"
2024-05-28_12-53-57.043338,"75.53,56.98"
2024-05-28_12-53-57.076104,"61.98,57.30"
2024-05-28_12-53-57.108878,"73.77,97.08"
2024-05-28_12-53-57.141604,"88.18,90.89"
2024-05-28_12-53-57.174377,"84.21,92.00"
2024-05-28_12-53-57.207079,"86.74,81.10"
2024-05-28_12-53-57.235830,"90.19,75.75"
2024-05-28_12-53-57.268588,"96.26,77.75"
2024-05-28_12-53-57.301376,"111.44,71.82"
2024-05-28_12-53-57.334175,"76.77,53.81"
2024-05-28_12-53-57.366908,"108.99,52.84"
2024-05-28_12-53-57.399626,"99.43,56.41"
2024-05-28_12-53-57.432319,"86.47,47.36"
2024-05-28_12-53-57.461094,"71.32,61.81"
2024-05-28_12-53-57.493883,"68.42,84.65"
2024-05-28_12-53-57.526621,"75.23,82.08"
2024-05-28_12-53-57.559455,"85.42,85.12"
2024-05-28_12-53-57.592189,"76.08,83.31"
2024-05-28_12-53-57.624893,"96.22,89.91"
2024-05-28_12-53-57.657604,"93.98,72.19"
2024-05-28_12-53-57.686376,"98.84,80.89"
2024-05-28_12-53-57.719149,"105.02,55.92"
2024-05-28_12-53-57.751909,"94.80,53.43"
2024-05-28_12-53-57.784683,"107.40,53.13"
2024-05-28_12-53-57.817469,"102.28,51.88"
2024-05-28_12-53-57.850534,"75.14,53.48"
2024-05-28_12-53-57.883329,"64.41,76.50"
2024-05-28_12-53-57.911856,"67.97,72.43"
2024-05-28_12-53-57.944629,"76.22,88.89"
2024-05-28_12-53-57.977237,"76.86,84.71"
2024-05-28_12-53-58.009955,"96.93,88.63"
2024-05-28_12-53-58.042730,"102.43,80.95"
2024-05-28_12-53-58.075494,"85.96,71.53"
2024-05-28_12-53-58.108176,"104.56,67.82"
2024-05-28_12-53-58.136903,"85.46,56.11"
2024-05-28_12-53-58.169670,"100.44,46.76"
2024-05-28_12-53-58.202530,"108.62,56.48"
2024-05-28_12-53-58.235217,"83.24,55.76"
2024-05-28_12-53-58.267987,"74.18,56.99"
2024-05-28_12-53-58.300718,"60.82,57.21"
2024-05-28_12-53-58.333409,"77.45,75.70"
2024-05-28_12-53-58.362194,"85.44,91.14"
2024-05-28_12-53-58.395016,"80.45,84.31"
2024-05-28_12-53-58.427793,"79.12,87.96"
2024-05-28_12-53-58.460554,"100.48,77.51"
2024-05-28_12-53-58.493275,"91.94,82.81"
2024-05-28_12-53-58.526050,"104.14,52.68"
2024-05-28_12-53-58.558690,"96.42,51.23"
2024-05-28_12-53-58.587413,"90.23,52.36"
2024-05-28_12-53-58.620250,"99.08,56.38"
2024-05-28_12-53-58.652987,"73.73,56.37"
2024-05-28_12-53-58.685730,"68.26,57.72"
2024-05-28_12-53-58.718559,"67.95,57.71"
2024-05-28_12-53-58.751289,"80.12,92.17"
2024-05-28_12-53-58.783955,"83.94,95.35"
2024-05-28_12-53-58.812774,"93.71,76.59"
2024-05-28_12-53-58.845530,"97.89,83.26"
2024-05-28_12-53-58.878284,"92.26,73.01"
2024-05-28_12-53-58.911058,"98.91,64.67"
2024-05-28_12-53-58.943803,"102.26,55.93"
2024-05-28_12-53-58.976520,"88.82,54.24"
2024-05-28_12-53-59.009226,"102.53,52.77"
2024-05-28_12-53-59.037968,"85.07,56.62"
2024-05-28_12-53-59.070756,"69.13,51.06"
2024-05-28_12-53-59.103480,"61.11,61.71"
2024-05-28_12-53-59.136325,"75.94,80.30"
2024-05-28_12-53-59.169036,"83.97,87.38"
2024-05-28_12-53-59.201878,"85.44,83.45"
2024-05-28_12-53-59.234506,"86.34,87.77"
2024-05-28_12-53-59.267204,"102.05,80.74"
2024-05-28_12-53-59.296008,"81.50,68.17"
2024-05-28_12-53-59.328770,"100.04,51.70"
2024-05-28_12-53-59.361561,"106.41,56.63"
2024-05-28_12-53-59.394348,"93.90,53.70"
2024-05-28_12-53-59.427077,"103.07,54.20"
2024-05-28_12-53-59.459756,"75.53,54.67"
2024-05-28_12-53-59.488531,"65.25,58.86"
2024-05-28_12-53-59.521292,"68.03,85.76"
2024-05-28_12-53-59.554063,"82.67,80.50"
2024-05-28_12-53-59.587766,"83.51,96.31"
2024-05-28_12-53-59.619671,"91.80,75.00"
2024-05-28_12-53-59.652383,"92.23,80.95"
2024-05-28_12-53-59.685031,"97.94,86.98"
2024-05-28_12-53-59.713765,"88.07,70.76"
2024-05-28_12-53-59.746768,"97.96,52.07"
2024-05-28_12-53-59.779312,"97.41,57.02"
2024-05-28_12-53-59.812128,"104.36,46.91"
2024-05-28_12-53-59.844873,"96.22,58.76"
2024-05-28_12-53-59.877617,"58.79,58.58"
2024-05-28_12-53-59.910331,"66.66,79.95"
2024-05-28_12-53-59.943050,"82.57,79.68"
2024-05-28_12-53-59.971873,"86.51,78.13"
2024-05-28_12-54-00.004628,"76.57,97.96"
2024-05-28_12-54-00.037797,"80.47,74.26"
2024-05-28_12-54-00.070175,"87.13,84.92"
2024-05-28_12-54-00.102885,"106.18,73.06"
2024-05-28_12-54-00.135622,"84.04,69.93"
2024-05-28_12-54-00.168287,"87.41,52.99"
2024-05-28_12-54-00.197100,"98.51,51.64"
2024-05-28_12-54-00.229935,"95.94,53.28"
2024-05-28_12-54-00.262659,"79.88,60.68"
2024-05-28_12-54-00.295467,"62.06,59.36"
2024-05-28_12-54-00.328161,"70.26,81.09"
2024-05-28_12-54-00.360895,"78.68,79.07"
2024-05-28_12-54-00.393567,"96.07,85.93"
2024-05-28_12-54-00.422387,"84.28,91.18"
2024-05-28_12-54-00.455200,"87.83,85.00"
2024-05-28_12-54-00.491417,"104.72,81.39"
2024-05-28_12-54-00.528995,"88.49,57.85"
2024-05-28_12-54-00.553532,"81.70,53.19"
2024-05-28_12-54-00.586162,"103.82,57.22"
2024-05-28_12-54-00.618828,"96.61,54.52"
2024-05-28_12-54-00.647626,"97.99,52.96"
2024-05-28_12-54-00.680464,"71.37,58.59"
2024-05-28_12-54-00.713131,"63.32,53.83"
2024-05-28_12-54-00.746099,"68.43,80.46"
2024-05-28_12-54-00.778739,"78.98,82.05"
2024-05-28_12-54-00.811522,"81.49,93.73"
2024-05-28_12-54-00.844152,"101.41,77.41"
2024-05-28_12-54-00.872852,"95.44,83.72"
2024-05-28_12-54-00.905744,"100.79,81.14"
2024-05-28_12-54-00.938494,"94.02,51.70"
2024-05-28_12-54-00.971228,"98.55,52.71"
2024-05-28_12-54-01.003975,"97.11,56.62"
2024-05-28_12-54-01.036688,"94.29,54.23"
2024-05-28_12-54-01.069417,"84.70,55.91"
2024-05-28_12-54-01.098151,"62.28,57.55"
2024-05-28_12-54-01.130914,"61.14,54.76"
2024-05-28_12-54-01.163693,"86.81,91.79"
2024-05-28_12-54-01.196458,"82.20,88.08"
2024-05-28_12-54-01.229262,"98.53,80.99"
2024-05-28_12-54-01.294528,"88.88,77.92"
2024-05-28_12-54-01.296511,"83.52,72.50"
2024-05-28_12-54-01.323561,"91.64,62.02"
2024-05-28_12-54-01.357712,"84.05,54.93"
2024-05-28_12-54-01.389205,"107.93,53.80"
2024-05-28_12-54-01.422343,"104.80,56.81"
2024-05-28_12-54-01.454549,"89.22,48.00"
2024-05-28_12-54-01.487250,"78.43,60.68"
2024-05-28_12-54-01.519928,"55.93,60.36"
2024-05-28_12-54-01.548681,"70.82,75.46"
2024-05-28_12-54-01.581464,"87.40,86.12"
2024-05-28_12-54-01.614212,"77.90,84.61"
2024-05-28_12-54-01.647016,"95.79,87.93"
2024-05-28_12-54-01.679747,"102.44,72.75"
2024-05-28_12-54-01.712509,"98.61,81.05"
2024-05-28_12-54-01.745186,"84.61,56.18"
2024-05-28_12-54-01.773946,"83.28,53.53"
2024-05-28_12-54-01.806722,"106.09,53.21"
2024-05-28_12-54-01.839467,"101.54,51.80"
2024-05-28_12-54-01.872257,"72.18,55.66"
2024-05-28_12-54-01.905060,"62.33,76.54"
2024-05-28_12-54-01.937772,"79.25,87.48"
2024-05-28_12-54-01.970453,"81.10,87.95"
2024-05-28_12-54-01.999288,"81.19,81.73"
2024-05-28_12-54-02.032092,"85.01,91.21"
2024-05-28_12-54-02.064826,"94.85,85.15"
2024-05-28_12-54-02.097595,"81.78,71.23"
2024-05-28_12-54-02.130303,"104.60,51.96"
2024-05-28_12-54-02.163047,"96.83,56.42"
2024-05-28_12-54-02.195769,"91.14,47.03"
2024-05-28_12-54-02.224494,"113.48,56.55"
2024-05-28_12-54-02.257256,"77.40,56.16"
2024-05-28_12-54-02.290030,"71.23,57.77"
2024-05-28_12-54-02.322776,"72.80,89.65"
2024-05-28_12-54-02.355570,"82.41,78.67"
2024-05-28_12-54-02.388318,"84.43,92.06"
2024-05-28_12-54-02.420981,"84.26,76.37"
2024-05-28_12-54-02.449753,"91.09,81.65"
2024-05-28_12-54-02.483700,"97.77,73.81"
2024-05-28_12-54-02.515299,"93.95,69.64"
2024-05-28_12-54-02.548057,"98.68,52.54"
2024-05-28_12-54-02.580835,"86.54,51.47"
2024-05-28_12-54-02.613587,"95.38,52.81"
2024-05-28_12-54-02.646316,"90.34,58.72"
2024-05-28_12-54-02.675061,"62.69,59.01"
2024-05-28_12-54-02.707818,"62.24,56.12"
2024-05-28_12-54-02.740576,"76.61,79.92"
2024-05-28_12-54-02.773315,"92.23,88.11"
2024-05-28_12-54-02.806175,"78.91,91.18"
2024-05-28_12-54-02.838823,"75.75,85.99"
2024-05-28_12-54-02.871653,"99.58,80.25"
2024-05-28_12-54-02.904295,"83.20,71.98"
2024-05-28_12-54-02.933100,"100.23,46.25"
2024-05-28_12-54-02.965869,"113.68,56.92"
2024-05-28_12-54-02.998597,"94.37,54.68"
2024-05-28_12-54-03.031711,"95.96,53.28"
2024-05-28_12-54-03.064165,"67.57,59.01"
2024-05-28_12-54-03.096909,"75.96,77.31"
2024-05-28_12-54-03.129573,"73.24,86.12"
2024-05-28_12-54-03.158312,"79.44,80.47"
2024-05-28_12-54-03.191106,"88.63,85.43"
2024-05-28_12-54-03.223888,"91.42,81.95"
2024-05-28_12-54-03.256632,"89.02,84.69"
2024-05-28_12-54-03.289423,"104.66,68.90"
2024-05-28_12-54-03.322116,"96.88,51.80"
2024-05-28_12-54-03.354835,"102.00,53.25"
2024-05-28_12-54-03.383609,"105.01,58.14"
2024-05-28_12-54-03.416418,"92.83,55.18"
2024-05-28_12-54-03.449211,"75.61,59.51"
2024-05-28_12-54-03.481986,"66.31,57.67"
2024-05-28_12-54-03.514683,"74.77,80.30"
2024-05-28_12-54-03.547417,"84.67,95.20"
2024-05-28_12-54-03.580105,"97.78,86.22"
2024-05-28_12-54-03.608850,"87.45,83.97"
2024-05-28_12-54-03.641645,"93.14,78.37"
2024-05-28_12-54-03.674415,"96.14,81.10"
2024-05-28_12-54-03.707210,"111.91,57.44"
2024-05-28_12-54-03.739970,"88.87,54.24"
2024-05-28_12-54-03.772664,"109.23,54.79"
2024-05-28_12-54-03.805382,"95.26,57.73"
2024-05-28_12-54-03.834120,"82.01,49.50"
2024-05-28_12-54-03.866908,"69.25,62.74"
2024-05-28_12-54-03.899684,"66.31,63.22"
2024-05-28_12-54-03.932440,"78.46,91.93"
2024-05-28_12-54-03.965237,"84.93,93.03"
2024-05-28_12-54-03.997920,"89.82,83.98"
2024-05-28_12-54-04.030662,"93.87,83.52"
2024-05-28_12-54-04.059463,"91.33,72.60"
2024-05-28_12-54-04.092346,"97.36,53.10"
2024-05-28_12-54-04.124992,"89.64,59.08"
2024-05-28_12-54-04.157907,"72.28,55.46"
2024-05-28_12-54-04.190521,"81.55,59.41"
2024-05-28_12-54-04.223289,"93.10,56.54"
2024-05-28_12-54-04.255939,"68.88,58.58"
2024-05-28_12-54-04.284675,"64.76,58.16"
2024-05-28_12-54-04.317403,"76.97,76.84"
2024-05-28_12-54-04.350369,"80.26,90.75"
2024-05-28_12-54-04.382979,"90.34,86.49"
2024-05-28_12-54-04.415748,"78.77,91.86"
2024-05-28_12-54-04.448474,"101.19,82.26"
2024-05-28_12-54-04.481171,"89.01,55.32"
2024-05-28_12-54-04.509925,"108.06,53.72"
2024-05-28_12-54-04.542670,"100.08,57.85"
2024-05-28_12-54-04.576194,"104.60,48.26"
2024-05-28_12-54-04.612261,"85.46,63.53"
2024-05-28_12-54-04.641900,"62.93,86.12"
2024-05-28_12-54-04.674923,"73.74,56.97"
2024-05-28_12-54-04.711139,"83.76,66.72"
2024-05-28_12-54-04.735279,"77.68,81.37"
2024-05-28_12-54-04.768326,"85.19,93.90"
2024-05-28_12-54-04.800791,"82.45,78.39"
2024-05-28_12-54-04.843424,"82.84,77.89"
2024-05-28_12-54-04.866286,"90.10,64.89"
2024-05-28_12-54-04.901396,"87.57,55.55"
2024-05-28_12-54-04.932138,"103.33,57.63"
2024-05-28_12-54-04.965934,"84.38,52.69"
2024-05-28_12-54-04.993373,"73.38,56.91"
2024-05-28_12-54-05.026179,"83.39,56.26"
2024-05-28_12-54-05.063689,"69.85,74.09"
2024-05-28_12-54-05.091592,"75.77,70.56"
2024-05-28_12-54-05.124323,"75.54,78.70"
2024-05-28_12-54-05.156983,"79.68,86.74"
2024-05-28_12-54-05.185798,"93.53,80.78"
2024-05-28_12-54-05.218879,"88.73,74.73"
2024-05-28_12-54-05.251318,"94.62,54.72"
2024-05-28_12-54-05.284079,"93.77,56.15"
2024-05-28_12-54-05.316789,"77.72,64.96"
2024-05-28_12-54-05.349574,"110.97,56.58"
2024-05-28_12-54-05.382267,"94.71,54.55"
2024-05-28_12-54-05.411081,"83.39,55.09"
2024-05-28_12-54-05.443805,"64.49,58.28"
2024-05-28_12-54-05.476955,"72.41,50.27"
2024-05-28_12-54-05.509615,"73.98,94.52"
2024-05-28_12-54-05.542454,"85.65,82.31"
2024-05-28_12-54-05.575514,"72.10,90.32"
2024-05-28_12-54-05.607768,"80.91,88.21"
2024-05-28_12-54-05.636319,"90.88,71.96"
2024-05-28_12-54-05.669062,"94.83,52.23"
2024-05-28_12-54-05.701802,"85.17,50.99"
2024-05-28_12-54-05.734625,"100.89,52.22"
2024-05-28_12-54-05.767368,"104.49,56.64"
2024-05-28_12-54-05.800120,"75.98,55.57"
2024-05-28_12-54-05.832765,"69.98,56.94"
2024-05-28_12-54-05.861568,"71.18,80.12"
2024-05-28_12-54-05.894416,"79.62,83.74"
2024-05-28_12-54-05.927449,"72.80,96.16"
2024-05-28_12-54-05.959935,"82.34,83.97"
2024-05-28_12-54-05.997750,"88.45,84.52"
2024-05-28_12-54-06.025594,"92.45,74.55"
2024-05-28_12-54-06.059141,"93.52,64.81"
2024-05-28_12-54-06.090800,"110.50,56.69"
2024-05-28_12-54-06.122674,"88.24,54.29"
2024-05-28_12-54-06.152446,"105.59,53.61"
2024-05-28_12-54-06.185209,"98.75,57.74"
2024-05-28_12-54-06.217889,"70.58,57.22"
2024-05-28_12-54-06.251111,"75.39,72.24"
2024-05-28_12-54-06.284288,"74.35,70.07"
2024-05-28_12-54-06.312113,"76.93,92.44"
2024-05-28_12-54-06.344910,"92.48,93.25"
2024-05-28_12-54-06.377642,"85.07,85.06"
2024-05-28_12-54-06.410779,"93.04,83.72"
2024-05-28_12-54-06.443155,"84.31,55.47"
2024-05-28_12-54-06.475931,"88.40,55.55"
2024-05-28_12-54-06.508642,"106.82,57.06"
2024-05-28_12-54-06.541391,"102.17,53.59"
2024-05-28_12-54-06.570143,"99.31,55.01"
2024-05-28_12-54-06.604222,"76.11,53.43"
2024-05-28_12-54-06.637874,"68.10,82.23"
2024-05-28_12-54-06.668480,"74.29,74.04"
2024-05-28_12-54-06.701240,"75.03,82.64"
2024-05-28_12-54-06.733886,"73.69,78.73"
2024-05-28_12-54-06.767052,"86.75,78.92"
2024-05-28_12-54-06.795390,"94.44,86.68"
2024-05-28_12-54-06.835245,"89.51,61.22"
2024-05-28_12-54-06.861336,"85.65,54.53"
2024-05-28_12-54-06.893805,"102.80,53.39"
2024-05-28_12-54-06.926473,"65.71,57.57"
2024-05-28_12-54-06.959183,"98.99,49.76"
2024-05-28_12-54-06.992424,"90.05,58.57"
2024-05-28_12-54-07.020737,"58.42,57.55"
2024-05-28_12-54-07.054930,"81.02,71.66"
2024-05-28_12-54-07.093289,"79.69,80.24"
2024-05-28_12-54-07.119011,"81.57,90.72"
2024-05-28_12-54-07.151828,"86.84,92.25"
2024-05-28_12-54-07.184584,"69.04,83.56"
2024-05-28_12-54-07.217213,"87.26,86.69"
2024-05-28_12-54-07.245959,"96.29,57.43"
2024-05-28_12-54-07.278729,"85.61,54.38"
2024-05-28_12-54-07.311567,"103.02,54.67"
2024-05-28_12-54-07.344723,"92.84,51.58"
2024-05-28_12-54-07.377008,"79.37,55.91"
2024-05-28_12-54-07.409660,"69.18,61.04"
2024-05-28_12-54-07.442474,"72.86,63.37"
2024-05-28_12-54-07.471210,"70.36,84.33"
2024-05-28_12-54-07.504055,"73.72,92.80"
2024-05-28_12-54-07.536733,"87.64,93.27"
2024-05-28_12-54-07.569542,"87.13,93.02"
2024-05-28_12-54-07.605217,"85.56,76.01"
2024-05-28_12-54-07.635030,"92.07,55.35"
2024-05-28_12-54-07.667674,"94.45,56.71"
2024-05-28_12-54-07.696503,"97.82,46.78"
2024-05-28_12-54-07.731114,"108.49,57.02"
2024-05-28_12-54-07.762091,"74.83,55.70"
2024-05-28_12-54-07.799106,"83.92,81.49"
2024-05-28_12-54-07.829954,"75.91,63.96"
2024-05-28_12-54-07.860227,"80.59,64.59"
2024-05-28_12-54-07.892922,"72.35,87.11"
2024-05-28_12-54-07.921716,"90.71,91.37"
2024-05-28_12-54-07.954746,"84.43,81.31"
2024-05-28_12-54-07.987270,"88.23,77.45"
2024-05-28_12-54-08.024888,"90.88,56.99"
2024-05-28_12-54-08.054153,"95.81,55.30"
2024-05-28_12-54-08.085700,"96.41,51.79"
2024-05-28_12-54-08.118545,"73.48,54.94"
2024-05-28_12-54-08.147054,"106.83,57.78"
2024-05-28_12-54-08.179754,"67.29,57.74"
2024-05-28_12-54-08.212651,"69.38,62.21"
2024-05-28_12-54-08.245731,"78.36,67.85"
2024-05-28_12-54-08.278187,"79.82,83.71"
2024-05-28_12-54-08.310916,"79.73,100.67"
2024-05-28_12-54-08.343541,"74.65,79.10"
2024-05-28_12-54-08.379143,"92.53,84.19"
2024-05-28_12-54-08.405022,"97.38,72.43"
2024-05-28_12-54-08.437811,"91.15,46.72"
2024-05-28_12-54-08.470905,"110.65,57.45"
2024-05-28_12-54-08.509565,"96.00,54.52"
2024-05-28_12-54-08.536465,"96.75,55.28"
2024-05-28_12-54-08.568776,"71.28,58.21"
2024-05-28_12-54-08.603140,"65.35,51.89"
2024-05-28_12-54-08.630374,"71.68,79.66"
2024-05-28_12-54-08.663104,"78.92,81.17"
2024-05-28_12-54-08.695894,"75.16,92.65"
2024-05-28_12-54-08.728589,"93.98,85.57"
2024-05-28_12-54-08.761459,"88.14,85.35"
2024-05-28_12-54-08.794042,"96.86,68.92"
2024-05-28_12-54-08.822842,"93.87,51.19"
2024-05-28_12-54-08.855608,"98.54,53.03"
2024-05-28_12-54-08.888387,"105.11,57.54"
2024-05-28_12-54-08.921285,"89.30,54.99"
2024-05-28_12-54-08.953935,"76.36,59.63"
2024-05-28_12-54-08.986643,"61.93,75.20"
2024-05-28_12-54-09.019338,"73.00,77.87"
2024-05-28_12-54-09.048054,"89.03,89.75"
2024-05-28_12-54-09.081229,"80.06,84.66"
2024-05-28_12-54-09.113630,"86.52,86.29"
2024-05-28_12-54-09.146427,"91.50,75.58"
2024-05-28_12-54-09.179131,"88.74,49.71"
2024-05-28_12-54-09.211894,"110.60,56.20"
2024-05-28_12-54-09.244570,"87.79,53.97"
2024-05-28_12-54-09.277345,"105.98,53.18"
2024-05-28_12-54-09.306105,"94.49,56.47"
2024-05-28_12-54-09.338869,"70.51,49.56"
2024-05-28_12-54-09.371652,"64.74,84.05"
2024-05-28_12-54-09.404572,"75.56,82.35"
2024-05-28_12-54-09.437265,"83.27,88.51"
2024-05-28_12-54-09.469849,"94.99,91.38"
2024-05-28_12-54-09.502583,"84.80,81.07"
2024-05-28_12-54-09.531429,"96.40,81.60"
2024-05-28_12-54-09.564156,"88.53,52.94"
2024-05-28_12-54-09.597098,"94.69,52.35"
2024-05-28_12-54-09.629731,"105.58,57.13"
2024-05-28_12-54-09.662465,"92.92,53.61"
2024-05-28_12-54-09.695151,"100.56,54.29"
2024-05-28_12-54-09.727828,"72.12,54.08"
2024-05-28_12-54-09.756636,"66.00,57.01"
2024-05-28_12-54-09.789377,"67.61,82.41"
2024-05-28_12-54-09.822203,"82.77,79.69"
2024-05-28_12-54-09.854977,"80.27,89.94"
2024-05-28_12-54-09.887779,"89.63,76.32"
2024-05-28_12-54-09.920392,"103.97,81.03"
2024-05-28_12-54-09.953096,"102.13,84.03"
2024-05-28_12-54-09.981892,"74.48,70.37"
2024-05-28_12-54-10.014661,"107.98,52.02"
2024-05-28_12-54-10.047484,"96.39,56.59"
2024-05-28_12-54-10.080304,"98.88,46.79"
2024-05-28_12-54-10.112995,"86.05,58.35"
2024-05-28_12-54-10.145628,"57.44,81.78"
2024-05-28_12-54-10.178358,"73.31,70.92"
2024-05-28_12-54-10.207225,"84.61,86.45"
2024-05-28_12-54-10.239916,"87.34,85.53"
2024-05-28_12-54-10.272682,"96.83,84.67"
2024-05-28_12-54-10.305507,"83.52,76.67"
2024-05-28_12-54-10.338263,"103.83,79.50"
2024-05-28_12-54-10.370992,"102.73,56.08"
2024-05-28_12-54-10.403655,"82.86,53.41"
2024-05-28_12-54-10.432477,"97.21,52.76"
2024-05-28_12-54-10.465536,"98.70,51.73"
2024-05-28_12-54-10.498212,"73.90,55.92"
2024-05-28_12-54-10.547836,"64.86,68.02"
2024-05-28_12-54-10.576021,"82.56,69.30"
2024-05-28_12-54-10.596224,"73.90,81.20"
2024-05-28_12-54-10.634356,"80.49,87.27"
2024-05-28_12-54-10.657808,"74.75,94.89"
2024-05-28_12-54-10.690554,"81.70,90.86"
2024-05-28_12-54-10.723624,"86.31,73.10"
2024-05-28_12-54-10.756197,"102.94,52.05"
2024-05-28_12-54-10.788808,"94.33,56.87"
2024-05-28_12-54-10.821463,"89.61,48.65"
2024-05-28_12-54-10.854182,"109.78,55.98"
2024-05-28_12-54-10.882951,"71.07,56.15"
2024-05-28_12-54-10.915731,"71.69,55.54"
2024-05-28_12-54-10.948455,"72.80,92.07"
2024-05-28_12-54-10.981468,"82.37,80.21"
2024-05-28_12-54-11.014039,"72.20,104.87"
2024-05-28_12-54-11.046741,"86.03,76.14"
2024-05-28_12-54-11.079548,"82.80,78.09"
2024-05-28_12-54-11.108257,"93.73,72.79"
2024-05-28_12-54-11.154765,"90.70,69.82"
2024-05-28_12-54-11.175958,"92.71,55.93"
2024-05-28_12-54-11.206603,"80.13,52.12"
2024-05-28_12-54-11.239903,"93.29,56.14"
2024-05-28_12-54-11.272037,"90.02,58.77"
2024-05-28_12-54-11.304694,"63.40,57.77"
2024-05-28_12-54-11.333541,"63.52,59.19"
2024-05-28_12-54-11.366308,"77.12,79.26"
2024-05-28_12-54-11.399112,"94.11,86.40"
2024-05-28_12-54-11.433116,"71.57,95.52"
2024-05-28_12-54-11.464596,"71.89,78.70"
2024-05-28_12-54-11.497421,"99.83,83.90"
2024-05-28_12-54-11.530091,"92.10,72.15"
2024-05-28_12-54-11.564620,"98.95,46.47"
2024-05-28_12-54-11.592082,"112.95,56.53"
2024-05-28_12-54-11.626230,"95.35,54.18"
2024-05-28_12-54-11.657177,"94.70,54.56"
2024-05-28_12-54-11.690546,"65.71,59.47"
2024-05-28_12-54-11.722522,"76.55,75.21"
2024-05-28_12-54-11.755241,"69.91,88.29"
2024-05-28_12-54-11.784221,"81.16,80.95"
2024-05-28_12-54-11.816850,"99.78,83.62"
2024-05-28_12-54-11.849564,"88.33,83.97"
2024-05-28_12-54-11.882418,"85.37,82.83"
2024-05-28_12-54-11.916780,"103.24,81.10"
2024-05-28_12-54-11.947839,"87.05,51.15"
2024-05-28_12-54-11.981408,"99.32,52.71"
2024-05-28_12-54-12.009382,"110.22,57.27"
2024-05-28_12-54-12.042107,"88.87,55.19"
2024-05-28_12-54-12.074887,"76.38,56.72"
2024-05-28_12-54-12.107659,"77.67,84.47"
2024-05-28_12-54-12.140436,"74.74,92.36"
2024-05-28_12-54-12.173129,"79.10,94.27"
2024-05-28_12-54-12.206008,"70.80,84.66"
2024-05-28_12-54-12.234557,"77.05,93.98"
2024-05-28_12-54-12.267575,"93.90,75.18"
2024-05-28_12-54-12.300123,"86.28,78.77"
2024-05-28_12-54-12.332858,"90.79,55.76"
2024-05-28_12-54-12.365633,"87.95,54.05"
2024-05-28_12-54-12.398405,"105.15,52.83"
2024-05-28_12-54-12.431076,"94.59,56.30"
2024-05-28_12-54-12.459867,"70.28,50.44"
2024-05-28_12-54-12.492977,"62.43,63.57"
2024-05-28_12-54-12.525397,"75.01,82.63"
2024-05-28_12-54-12.558135,"86.46,86.64"
2024-05-28_12-54-12.590896,"101.61,93.17"
2024-05-28_12-54-12.623665,"86.49,81.94"
2024-05-28_12-54-12.656390,"100.81,79.84"
2024-05-28_12-54-12.685138,"92.67,68.39"
2024-05-28_12-54-12.717908,"98.64,51.81"
2024-05-28_12-54-12.750699,"106.61,56.81"
2024-05-28_12-54-12.783463,"100.55,53.45"
2024-05-28_12-54-12.816188,"96.66,53.01"
2024-05-28_12-54-12.848895,"67.88,54.42"
2024-05-28_12-54-12.881636,"63.85,73.08"
2024-05-28_12-54-12.910362,"68.20,78.70"
2024-05-28_12-54-12.943226,"81.91,80.66"
2024-05-28_12-54-12.975934,"81.11,87.28"
2024-05-28_12-54-13.008744,"77.57,79.48"
2024-05-28_12-54-13.041632,"93.04,85.22"
2024-05-28_12-54-13.074202,"92.65,61.55"
2024-05-28_12-54-13.107043,"86.24,54.65"
2024-05-28_12-54-13.139630,"107.52,53.35"
2024-05-28_12-54-13.168483,"97.02,57.36"
2024-05-28_12-54-13.201218,"92.61,47.88"
2024-05-28_12-54-13.234040,"77.88,60.12"
2024-05-28_12-54-13.266729,"55.93,59.49"
2024-05-28_12-54-13.299453,"74.54,79.77"
2024-05-28_12-54-13.332144,"88.45,85.43"
2024-05-28_12-54-13.364837,"90.92,89.83"
2024-05-28_12-54-13.393705,"95.02,84.82"
2024-05-28_12-54-13.426469,"89.54,79.22"
2024-05-28_12-54-13.459217,"81.00,57.90"
2024-05-28_12-54-13.491987,"92.76,56.21"
2024-05-28_12-54-13.524781,"83.74,53.23"
2024-05-28_12-54-13.557526,"105.60,53.09"
2024-05-28_12-54-13.590225,"101.39,52.14"
2024-05-28_12-54-13.619000,"68.27,56.04"
2024-05-28_12-54-13.655285,"69.12,74.53"
2024-05-28_12-54-13.684644,"85.61,77.15"
2024-05-28_12-54-13.717270,"72.07,82.81"
2024-05-28_12-54-13.750084,"75.96,83.98"
2024-05-28_12-54-13.782758,"79.76,91.79"
2024-05-28_12-54-13.815568,"90.81,84.92"
2024-05-28_12-54-13.844268,"88.58,72.10"
2024-05-28_12-54-13.876981,"106.10,67.77"
2024-05-28_12-54-13.909723,"95.40,56.27"
2024-05-28_12-54-13.942530,"100.35,46.63"
2024-05-28_12-54-13.975390,"112.32,57.13"
2024-05-28_12-54-14.008148,"77.50,55.60"
2024-05-28_12-54-14.040943,"78.16,58.77"
2024-05-28_12-54-14.069553,"74.22,65.14"
2024-05-28_12-54-14.102317,"79.54,69.46"
2024-05-28_12-54-14.135072,"77.89,94.45"
2024-05-28_12-54-14.167837,"90.21,85.09"
2024-05-28_12-54-14.200562,"80.57,86.94"
2024-05-28_12-54-14.233282,"90.50,77.98"
2024-05-28_12-54-14.266112,"88.95,70.04"
2024-05-28_12-54-14.294961,"102.46,52.39"
2024-05-28_12-54-14.327594,"93.86,51.24"
2024-05-28_12-54-14.360366,"99.00,53.99"
2024-05-28_12-54-14.393207,"101.59,57.09"
2024-05-28_12-54-14.426032,"71.30,56.80"
2024-05-28_12-54-14.466657,"68.38,64.39"
2024-05-28_12-54-14.510590,"84.64,66.18"
