timestamp,EMG
2024-05-28_13-46-20.189821,"74.72,71.77"
2024-05-28_13-46-20.222658,"56.06,64.72"
2024-05-28_13-46-20.255386,"57.78,76.12"
2024-05-28_13-46-20.288140,"52.84,71.54"
2024-05-28_13-46-20.320772,"77.64,67.12"
2024-05-28_13-46-20.349584,"56.85,75.19"
2024-05-28_13-46-20.382273,"68.20,73.65"
2024-05-28_13-46-20.415097,"61.01,81.55"
2024-05-28_13-46-20.447881,"78.95,61.79"
2024-05-28_13-46-20.480607,"91.12,46.89"
2024-05-28_13-46-20.513312,"67.18,43.06"
2024-05-28_13-46-20.546100,"58.58,63.40"
2024-05-28_13-46-20.574985,"55.78,69.06"
2024-05-28_13-46-20.607594,"54.35,71.22"
2024-05-28_13-46-20.640452,"61.55,68.55"
2024-05-28_13-46-20.673198,"60.00,72.31"
2024-05-28_13-46-20.705926,"52.64,80.50"
2024-05-28_13-46-20.738557,"82.02,74.77"
2024-05-28_13-46-20.771503,"73.82,75.72"
2024-05-28_13-46-20.800094,"87.11,48.23"
2024-05-28_13-46-20.832853,"81.04,38.74"
2024-05-28_13-46-20.865661,"76.60,61.04"
2024-05-28_13-46-20.898393,"49.67,63.72"
2024-05-28_13-46-20.931144,"52.98,70.94"
2024-05-28_13-46-20.963882,"65.35,66.21"
2024-05-28_13-46-20.996580,"60.41,77.54"
2024-05-28_13-46-21.025416,"49.69,74.03"
2024-05-28_13-46-21.058119,"77.89,61.78"
2024-05-28_13-46-21.091036,"72.13,75.71"
2024-05-28_13-46-21.123875,"83.65,67.32"
2024-05-28_13-46-21.156451,"74.13,41.01"
2024-05-28_13-46-21.189217,"72.93,39.77"
2024-05-28_13-46-21.221935,"52.90,65.03"
2024-05-28_13-46-21.250660,"46.63,69.58"
2024-05-28_13-46-21.283403,"63.16,76.06"
2024-05-28_13-46-21.316172,"67.29,67.65"
2024-05-28_13-46-21.348960,"56.72,73.31"
2024-05-28_13-46-21.381697,"57.15,77.55"
2024-05-28_13-46-21.414433,"89.63,76.17"
2024-05-28_13-46-21.447162,"76.72,76.23"
2024-05-28_13-46-21.476126,"88.26,45.62"
2024-05-28_13-46-21.508742,"67.31,37.58"
2024-05-28_13-46-21.541508,"63.76,47.00"
2024-05-28_13-46-21.574133,"52.52,79.52"
2024-05-28_13-46-21.606968,"51.71,71.28"
2024-05-28_13-46-21.639660,"59.30,65.43"
2024-05-28_13-46-21.672395,"70.52,71.90"
2024-05-28_13-46-21.701210,"60.06,70.43"
2024-05-28_13-46-21.733934,"77.79,94.36"
2024-05-28_13-46-21.766779,"72.85,78.43"
2024-05-28_13-46-21.799502,"79.65,48.46"
2024-05-28_13-46-21.832399,"84.58,34.42"
2024-05-28_13-46-21.864940,"86.12,63.53"
2024-05-28_13-46-21.897648,"50.98,63.40"
2024-05-28_13-46-21.926761,"54.38,70.54"
2024-05-28_13-46-21.959255,"63.15,66.14"
2024-05-28_13-46-21.992059,"51.37,73.60"
2024-05-28_13-46-22.024914,"66.23,80.44"
2024-05-28_13-46-22.057560,"66.82,74.22"
2024-05-28_13-46-22.090284,"87.81,66.07"
2024-05-28_13-46-22.123174,"70.25,51.32"
2024-05-28_13-46-22.151702,"91.19,41.35"
2024-05-28_13-46-22.184500,"66.02,70.39"
2024-05-28_13-46-22.217293,"58.28,53.46"
2024-05-28_13-46-22.250027,"72.41,58.01"
2024-05-28_13-46-22.282761,"57.85,65.26"
2024-05-28_13-46-22.315485,"58.97,76.00"
2024-05-28_13-46-22.348231,"53.30,72.23"
2024-05-28_13-46-22.376949,"67.64,68.17"
2024-05-28_13-46-22.409739,"57.47,81.07"
2024-05-28_13-46-22.442527,"89.99,69.81"
2024-05-28_13-46-22.475217,"64.23,77.89"
2024-05-28_13-46-22.508029,"83.07,41.40"
2024-05-28_13-46-22.540781,"79.33,65.94"
2024-05-28_13-46-22.574087,"43.23,73.15"
2024-05-28_13-46-22.602385,"58.43,75.22"
2024-05-28_13-46-22.634995,"58.00,67.11"
2024-05-28_13-46-22.667790,"54.28,70.52"
2024-05-28_13-46-22.700600,"72.38,68.79"
2024-05-28_13-46-22.733250,"55.25,72.82"
2024-05-28_13-46-22.766068,"68.60,83.44"
2024-05-28_13-46-22.798753,"77.81,72.49"
2024-05-28_13-46-22.827588,"79.10,59.97"
2024-05-28_13-46-22.860296,"102.87,47.02"
2024-05-28_13-46-22.893140,"64.36,58.92"
2024-05-28_13-46-22.925790,"74.17,60.92"
2024-05-28_13-46-22.958570,"53.92,64.42"
2024-05-28_13-46-22.991332,"53.56,71.49"
2024-05-28_13-46-23.024118,"62.45,66.84"
2024-05-28_13-46-23.056757,"56.25,78.87"
2024-05-28_13-46-23.085541,"52.12,74.51"
2024-05-28_13-46-23.118326,"93.38,78.02"
2024-05-28_13-46-23.151068,"74.49,74.02"
2024-05-28_13-46-23.183880,"89.15,47.88"
2024-05-28_13-46-23.216654,"67.44,39.80"
2024-05-28_13-46-23.249293,"75.48,62.13"
2024-05-28_13-46-23.282016,"55.06,64.54"
2024-05-28_13-46-23.310874,"46.29,69.51"
2024-05-28_13-46-23.343587,"62.31,76.08"
2024-05-28_13-46-23.376332,"64.88,68.12"
2024-05-28_13-46-23.409123,"52.01,75.05"
2024-05-28_13-46-23.441938,"58.75,74.00"
2024-05-28_13-46-23.474572,"87.36,82.18"
2024-05-28_13-46-23.507257,"79.11,76.04"
2024-05-28_13-46-23.536111,"81.74,65.63"
2024-05-28_13-46-23.568893,"59.57,75.08"
2024-05-28_13-46-23.601659,"53.51,65.12"
2024-05-28_13-46-23.634436,"56.41,76.47"
2024-05-28_13-46-23.667164,"52.66,71.49"
2024-05-28_13-46-23.699834,"60.40,66.22"
2024-05-28_13-46-23.732624,"67.24,73.08"
2024-05-28_13-46-23.761686,"55.04,69.55"
2024-05-28_13-46-23.794147,"65.70,85.36"
2024-05-28_13-46-23.827149,"76.07,76.66"
2024-05-28_13-46-23.859737,"89.64,47.04"
2024-05-28_13-46-23.892453,"73.81,57.90"
2024-05-28_13-46-23.925109,"70.98,61.91"
2024-05-28_13-46-23.960630,"54.02,65.50"
2024-05-28_13-46-23.986790,"54.33,70.80"
2024-05-28_13-46-24.019373,"68.46,67.15"
2024-05-28_13-46-24.052193,"71.52,74.23"
2024-05-28_13-46-24.084952,"69.74,81.59"
2024-05-28_13-46-24.117682,"78.94,79.76"
2024-05-28_13-46-24.150391,"71.10,62.60"
2024-05-28_13-46-24.183235,"80.92,49.66"
2024-05-28_13-46-24.211890,"78.35,40.56"
2024-05-28_13-46-24.244689,"76.24,62.70"
2024-05-28_13-46-24.277454,"65.94,45.19"
2024-05-28_13-46-24.310358,"52.65,71.12"
2024-05-28_13-46-24.342974,"60.62,66.33"
2024-05-28_13-46-24.376281,"55.71,75.85"
2024-05-28_13-46-24.408336,"61.98,73.16"
2024-05-28_13-46-24.437135,"53.63,69.77"
2024-05-28_13-46-24.469955,"66.12,78.35"
2024-05-28_13-46-24.502677,"69.62,81.30"
2024-05-28_13-46-24.535473,"65.82,69.66"
2024-05-28_13-46-24.568235,"87.99,39.34"
2024-05-28_13-46-24.600972,"70.07,62.12"
2024-05-28_13-46-24.633650,"65.00,55.93"
2024-05-28_13-46-24.662417,"57.63,74.87"
2024-05-28_13-46-24.695198,"59.49,67.03"
2024-05-28_13-46-24.727924,"53.62,71.53"
2024-05-28_13-46-24.760827,"68.41,70.57"
2024-05-28_13-46-24.793546,"52.54,81.65"
2024-05-28_13-46-24.826209,"89.50,80.62"
2024-05-28_13-46-24.858919,"67.98,47.70"
2024-05-28_13-46-24.887700,"83.90,38.83"
2024-05-28_13-46-24.920464,"90.99,57.98"
2024-05-28_13-46-24.953257,"75.31,48.68"
2024-05-28_13-46-24.986047,"52.60,72.64"
2024-05-28_13-46-25.018809,"57.29,65.09"
2024-05-28_13-46-25.051496,"55.45,72.12"
2024-05-28_13-46-25.084227,"72.09,67.87"
2024-05-28_13-46-25.112982,"49.63,80.22"
2024-05-28_13-46-25.145845,"69.35,77.74"
2024-05-28_13-46-25.178551,"79.46,72.64"
2024-05-28_13-46-25.211237,"78.70,74.09"
2024-05-28_13-46-25.244042,"96.39,46.90"
2024-05-28_13-46-25.276763,"64.62,58.16"
2024-05-28_13-46-25.309505,"68.11,59.62"
2024-05-28_13-46-25.338271,"59.60,65.01"
2024-05-28_13-46-25.371014,"47.72,70.15"
2024-05-28_13-46-25.403760,"62.93,76.68"
2024-05-28_13-46-25.436554,"66.73,69.07"
2024-05-28_13-46-25.469293,"51.53,75.25"
2024-05-28_13-46-25.502095,"89.80,64.52"
2024-05-28_13-46-25.534761,"67.53,80.77"
2024-05-28_13-46-25.563536,"82.01,40.67"
2024-05-28_13-46-25.596271,"78.05,43.26"
2024-05-28_13-46-25.629046,"72.16,37.27"
2024-05-28_13-46-25.661857,"52.76,64.98"
2024-05-28_13-46-25.694662,"56.87,75.70"
2024-05-28_13-46-25.727307,"53.36,70.92"
2024-05-28_13-46-25.760068,"69.69,68.85"
2024-05-28_13-46-25.788801,"61.38,73.52"
2024-05-28_13-46-25.822411,"68.22,73.65"
2024-05-28_13-46-25.854304,"77.56,77.52"
2024-05-28_13-46-25.887086,"77.89,62.09"
2024-05-28_13-46-25.919853,"92.37,46.95"
2024-05-28_13-46-25.952603,"75.15,33.82"
2024-05-28_13-46-25.988544,"65.75,62.84"
2024-05-28_13-46-26.018004,"52.85,64.87"
2024-05-28_13-46-26.046818,"53.76,70.66"
2024-05-28_13-46-26.079548,"65.21,67.27"
2024-05-28_13-46-26.112969,"68.83,70.81"
2024-05-28_13-46-26.145082,"53.14,79.65"
2024-05-28_13-46-26.177819,"87.23,74.56"
2024-05-28_13-46-26.210595,"72.88,76.40"
2024-05-28_13-46-26.243425,"81.85,67.11"
2024-05-28_13-46-26.272131,"78.59,40.34"
2024-05-28_13-46-26.304846,"73.35,41.24"
2024-05-28_13-46-26.337615,"46.54,63.74"
2024-05-28_13-46-26.370375,"54.20,70.89"
2024-05-28_13-46-26.403147,"62.88,66.08"
2024-05-28_13-46-26.435826,"69.68,76.08"
2024-05-28_13-46-26.468627,"58.78,73.79"
2024-05-28_13-46-26.497400,"52.37,80.35"
2024-05-28_13-46-26.530493,"83.40,67.84"
2024-05-28_13-46-26.565620,"71.47,76.30"
2024-05-28_13-46-26.595658,"89.67,63.98"
2024-05-28_13-46-26.628428,"67.34,40.19"
2024-05-28_13-46-26.661174,"65.01,64.40"
2024-05-28_13-46-26.693874,"45.20,71.58"
2024-05-28_13-46-26.723080,"59.69,75.24"
2024-05-28_13-46-26.755383,"57.03,67.09"
2024-05-28_13-46-26.788135,"67.77,71.81"
2024-05-28_13-46-26.820915,"60.02,71.43"
2024-05-28_13-46-26.853695,"64.90,84.96"
2024-05-28_13-46-26.886399,"80.32,79.11"
2024-05-28_13-46-26.919104,"71.15,46.84"
2024-05-28_13-46-26.947939,"86.64,38.67"
2024-05-28_13-46-26.980934,"80.64,45.33"
2024-05-28_13-46-27.013430,"67.27,71.05"
2024-05-28_13-46-27.046178,"50.87,71.26"
2024-05-28_13-46-27.078942,"58.54,65.32"
2024-05-28_13-46-27.111737,"54.73,72.79"
2024-05-28_13-46-27.144405,"67.74,67.39"
2024-05-28_13-46-27.173625,"49.82,80.07"
2024-05-28_13-46-27.205933,"69.42,77.78"
2024-05-28_13-46-27.238683,"79.87,73.27"
2024-05-28_13-46-27.271438,"79.55,73.96"
2024-05-28_13-46-27.304198,"96.68,46.39"
2024-05-28_13-46-27.336951,"64.16,57.93"
2024-05-28_13-46-27.369737,"57.78,59.93"
2024-05-28_13-46-27.398393,"59.97,65.14"
2024-05-28_13-46-27.431169,"47.71,70.16"
2024-05-28_13-46-27.463954,"75.70,77.00"
2024-05-28_13-46-27.496717,"58.58,69.85"
2024-05-28_13-46-27.529545,"69.23,75.44"
2024-05-28_13-46-27.562203,"80.04,79.26"
2024-05-28_13-46-27.594917,"82.30,78.60"
2024-05-28_13-46-27.623806,"87.06,40.47"
2024-05-28_13-46-27.656509,"51.69,42.53"
2024-05-28_13-46-27.689225,"77.94,70.95"
2024-05-28_13-46-27.722987,"56.26,64.82"
2024-05-28_13-46-27.754772,"57.30,75.83"
2024-05-28_13-46-27.787515,"54.68,71.47"
2024-05-28_13-46-27.820174,"77.10,69.28"
2024-05-28_13-46-27.848976,"54.50,75.51"
2024-05-28_13-46-27.881719,"88.46,72.98"
2024-05-28_13-46-27.914519,"60.34,80.56"
2024-05-28_13-46-27.947260,"81.65,62.05"
2024-05-28_13-46-27.979990,"91.14,46.20"
2024-05-28_13-46-28.012799,"66.57,53.34"
2024-05-28_13-46-28.045472,"68.42,76.58"
2024-05-28_13-46-28.086617,"55.50,65.68"
2024-05-28_13-46-28.107283,"54.42,71.95"
2024-05-28_13-46-28.139763,"75.09,67.74"
2024-05-28_13-46-28.172586,"55.20,71.65"
2024-05-28_13-46-28.205317,"51.94,87.61"
2024-05-28_13-46-28.238068,"80.77,66.20"
2024-05-28_13-46-28.270757,"75.54,75.25"
2024-05-28_13-46-28.299546,"93.28,47.53"
2024-05-28_13-46-28.332239,"53.53,38.37"
2024-05-28_13-46-28.365037,"79.41,72.66"
2024-05-28_13-46-28.397795,"51.54,63.73"
2024-05-28_13-46-28.430532,"53.50,70.44"
2024-05-28_13-46-28.463328,"64.77,66.15"
2024-05-28_13-46-28.496078,"74.60,77.44"
2024-05-28_13-46-28.524754,"72.98,78.51"
2024-05-28_13-46-28.557519,"79.50,80.10"
2024-05-28_13-46-28.590323,"75.32,77.54"
2024-05-28_13-46-28.623475,"84.24,67.20"
2024-05-28_13-46-28.655877,"88.40,40.96"
2024-05-28_13-46-28.688585,"73.23,40.67"
2024-05-28_13-46-28.721285,"51.63,65.55"
2024-05-28_13-46-28.753968,"47.57,70.10"
2024-05-28_13-46-28.782809,"60.89,75.16"
2024-05-28_13-46-28.815514,"71.53,67.99"
2024-05-28_13-46-28.848451,"60.62,73.51"
2024-05-28_13-46-28.881036,"56.27,80.80"
2024-05-28_13-46-28.913842,"94.09,87.14"
2024-05-28_13-46-28.946538,"78.72,76.59"
2024-05-28_13-46-28.979290,"85.46,44.44"
2024-05-28_13-46-29.008139,"81.06,38.14"
2024-05-28_13-46-29.040809,"66.17,46.58"
2024-05-28_13-46-29.073610,"52.18,75.68"
2024-05-28_13-46-29.106362,"52.39,70.61"
2024-05-28_13-46-29.139125,"60.05,65.92"
2024-05-28_13-46-29.171797,"68.64,73.11"
2024-05-28_13-46-29.204619,"60.54,68.45"
2024-05-28_13-46-29.233292,"86.70,82.88"
2024-05-28_13-46-29.266174,"73.36,77.43"
2024-05-28_13-46-29.298856,"77.76,66.47"
2024-05-28_13-46-29.331601,"82.86,34.76"
2024-05-28_13-46-29.364420,"67.46,79.02"
2024-05-28_13-46-29.397142,"51.46,63.04"
2024-05-28_13-46-29.429844,"53.23,70.97"
2024-05-28_13-46-29.458605,"61.18,65.33"
2024-05-28_13-46-29.491452,"66.10,71.82"
2024-05-28_13-46-29.524619,"63.37,78.76"
2024-05-28_13-46-29.556907,"64.84,70.80"
2024-05-28_13-46-29.589689,"81.59,70.78"
2024-05-28_13-46-29.622883,"70.97,70.33"
2024-05-28_13-46-29.655103,"90.28,61.33"
2024-05-28_13-46-29.683819,"67.70,40.56"
2024-05-28_13-46-29.716670,"60.18,54.19"
2024-05-28_13-46-29.749438,"64.40,73.82"
2024-05-28_13-46-29.782131,"58.00,65.18"
2024-05-28_13-46-29.814903,"59.44,76.32"
2024-05-28_13-46-29.847630,"53.08,72.28"
2024-05-28_13-46-29.880406,"61.50,70.46"
2024-05-28_13-46-29.909127,"57.20,79.98"
2024-05-28_13-46-29.942052,"90.53,68.17"
2024-05-28_13-46-29.974632,"64.18,77.92"
2024-05-28_13-46-30.007405,"84.25,62.08"
2024-05-28_13-46-30.040200,"81.97,46.29"
2024-05-28_13-46-30.114343,"64.11,63.12"
2024-05-28_13-46-30.120260,"53.21,75.65"
2024-05-28_13-46-30.134632,"55.19,66.06"
2024-05-28_13-46-30.167163,"53.48,71.49"
2024-05-28_13-46-30.199932,"62.66,67.82"
2024-05-28_13-46-30.232735,"55.52,71.73"
2024-05-28_13-46-30.265613,"51.67,92.03"
2024-05-28_13-46-30.298254,"84.95,79.27"
2024-05-28_13-46-30.330967,"75.08,75.29"
2024-05-28_13-46-30.359705,"93.44,47.50"
2024-05-28_13-46-30.392506,"54.15,38.19"
2024-05-28_13-46-30.425215,"65.75,73.93"
2024-05-28_13-46-30.457987,"52.60,63.35"
2024-05-28_13-46-30.490738,"52.91,70.75"
2024-05-28_13-46-30.524197,"62.52,66.27"
2024-05-28_13-46-30.556222,"92.04,79.89"
2024-05-28_13-46-30.584947,"50.39,75.96"
2024-05-28_13-46-30.617788,"83.01,73.79"
2024-05-28_13-46-30.650579,"72.91,76.39"
2024-05-28_13-46-30.683251,"83.34,67.24"
2024-05-28_13-46-30.716034,"85.95,40.91"
2024-05-28_13-46-30.748736,"75.16,65.43"
2024-05-28_13-46-30.781785,"59.98,47.63"
2024-05-28_13-46-30.810230,"45.40,69.93"
2024-05-28_13-46-30.843004,"61.57,75.03"
2024-05-28_13-46-30.875798,"58.53,68.66"
2024-05-28_13-46-30.908630,"62.67,73.31"
2024-05-28_13-46-30.941276,"55.55,69.33"
2024-05-28_13-46-30.974397,"84.57,87.20"
2024-05-28_13-46-31.006753,"77.05,75.92"
2024-05-28_13-46-31.035528,"81.78,45.06"
2024-05-28_13-46-31.068298,"91.29,38.53"
2024-05-28_13-46-31.101041,"68.01,65.75"
2024-05-28_13-46-31.133798,"58.94,62.44"
2024-05-28_13-46-31.166565,"52.75,71.02"
2024-05-28_13-46-31.199583,"61.21,66.25"
2024-05-28_13-46-31.232031,"53.75,71.39"
2024-05-28_13-46-31.260844,"62.97,68.61"
2024-05-28_13-46-31.310573,"53.19,83.12"
2024-05-28_13-46-31.337877,"76.23,78.30"
2024-05-28_13-46-31.359268,"73.76,67.31"
2024-05-28_13-46-31.391958,"81.27,35.30"
2024-05-28_13-46-31.424600,"67.40,52.88"
2024-05-28_13-46-31.457242,"64.31,47.31"
2024-05-28_13-46-31.489913,"53.19,71.49"
2024-05-28_13-46-31.518878,"62.93,66.36"
2024-05-28_13-46-31.551538,"63.94,73.12"
2024-05-28_13-46-31.584290,"75.16,80.07"
2024-05-28_13-46-31.617068,"48.86,71.28"
2024-05-28_13-46-31.649837,"68.29,77.90"
2024-05-28_13-46-31.682532,"70.43,72.36"
2024-05-28_13-46-31.715226,"84.92,62.59"
2024-05-28_13-46-31.744160,"91.01,40.63"
2024-05-28_13-46-31.776996,"64.17,60.09"
2024-05-28_13-46-31.809632,"69.32,58.31"
2024-05-28_13-46-31.842361,"56.48,64.94"
2024-05-28_13-46-31.875106,"57.29,75.16"
2024-05-28_13-46-31.907834,"53.64,71.56"
2024-05-28_13-46-31.940489,"66.80,70.32"
2024-05-28_13-46-31.969330,"56.38,78.71"
2024-05-28_13-46-32.002756,"91.67,66.35"
2024-05-28_13-46-32.034864,"62.25,79.06"
2024-05-28_13-46-32.067646,"81.78,61.72"
2024-05-28_13-46-32.100503,"80.67,46.02"
2024-05-28_13-46-32.133119,"65.95,53.97"
2024-05-28_13-46-32.165764,"51.54,76.04"
2024-05-28_13-46-32.194830,"56.44,65.94"
2024-05-28_13-46-32.227549,"53.77,71.71"
2024-05-28_13-46-32.260140,"61.58,67.21"
2024-05-28_13-46-32.292946,"57.91,71.71"
2024-05-28_13-46-32.325805,"51.66,80.21"
2024-05-28_13-46-32.358411,"66.88,75.30"
2024-05-28_13-46-32.391145,"73.74,75.19"
2024-05-28_13-46-32.419956,"87.84,47.66"
2024-05-28_13-46-32.452658,"82.63,39.11"
2024-05-28_13-46-32.485540,"76.00,61.15"
2024-05-28_13-46-32.518163,"52.22,63.47"
2024-05-28_13-46-32.550943,"48.12,75.17"
2024-05-28_13-46-32.583639,"63.41,66.03"
2024-05-28_13-46-32.616331,"65.46,77.17"
2024-05-28_13-46-32.645173,"52.60,75.19"
2024-05-28_13-46-32.683362,"80.61,75.53"
2024-05-28_13-46-32.710670,"72.74,77.02"
2024-05-28_13-46-32.743571,"81.14,50.13"
2024-05-28_13-46-32.776162,"93.81,61.32"
2024-05-28_13-46-32.808880,"79.14,59.53"
2024-05-28_13-46-32.841635,"69.67,47.00"
2024-05-28_13-46-32.870376,"44.83,70.26"
2024-05-28_13-46-32.903178,"59.63,74.93"
2024-05-28_13-46-32.936846,"57.60,68.39"
2024-05-28_13-46-32.968666,"68.63,72.61"
2024-05-28_13-46-33.001545,"59.54,69.80"
2024-05-28_13-46-33.034193,"78.66,83.27"
2024-05-28_13-46-33.066852,"77.11,77.40"
2024-05-28_13-46-33.095895,"73.99,64.96"
2024-05-28_13-46-33.128633,"87.54,38.53"
2024-05-28_13-46-33.161180,"66.92,67.39"
2024-05-28_13-46-33.193972,"52.48,61.93"
2024-05-28_13-46-33.226698,"51.36,71.26"
2024-05-28_13-46-33.259494,"59.93,66.08"
2024-05-28_13-46-33.292156,"55.71,71.13"
2024-05-28_13-46-33.320928,"72.12,67.76"
2024-05-28_13-46-33.353737,"51.52,83.55"
2024-05-28_13-46-33.386524,"90.54,77.89"
2024-05-28_13-46-33.419261,"67.54,68.39"
2024-05-28_13-46-33.452046,"88.03,35.79"
2024-05-28_13-46-33.484905,"80.43,59.75"
2024-05-28_13-46-33.517488,"56.53,58.25"
2024-05-28_13-46-33.546210,"50.23,76.25"
2024-05-28_13-46-33.578977,"61.90,65.98"
2024-05-28_13-46-33.611717,"47.85,69.57"
2024-05-28_13-46-33.644599,"73.37,76.70"
2024-05-28_13-46-33.677337,"60.01,70.89"
2024-05-28_13-46-33.710045,"51.88,73.20"
2024-05-28_13-46-33.742784,"95.49,77.02"
2024-05-28_13-46-33.771512,"78.28,78.16"
2024-05-28_13-46-33.804306,"86.53,40.94"
2024-05-28_13-46-33.837080,"67.15,42.64"
2024-05-28_13-46-33.869818,"74.43,50.67"
2024-05-28_13-46-33.902569,"54.33,64.22"
2024-05-28_13-46-33.935307,"56.05,75.20"
2024-05-28_13-46-33.968014,"55.70,71.46"
2024-05-28_13-46-34.000673,"63.03,68.76"
2024-05-28_13-46-34.029514,"54.85,73.06"
2024-05-28_13-46-34.062278,"82.09,72.68"
2024-05-28_13-46-34.095103,"76.57,81.45"
2024-05-28_13-46-34.127827,"78.24,61.55"
2024-05-28_13-46-34.160589,"89.92,47.12"
2024-05-28_13-46-34.193364,"70.51,54.11"
2024-05-28_13-46-34.226202,"69.48,61.30"
2024-05-28_13-46-34.254799,"54.00,65.67"
2024-05-28_13-46-34.287620,"52.25,71.72"
2024-05-28_13-46-34.320501,"61.62,66.51"
2024-05-28_13-46-34.353124,"62.98,71.36"
2024-05-28_13-46-34.385850,"51.59,81.75"
2024-05-28_13-46-34.418583,"81.46,75.53"
2024-05-28_13-46-34.451259,"72.92,75.70"
2024-05-28_13-46-34.480040,"86.70,48.04"
2024-05-28_13-46-34.512825,"81.34,38.07"
2024-05-28_13-46-34.545662,"50.77,78.58"
2024-05-28_13-46-34.578302,"53.88,64.02"
2024-05-28_13-46-34.611119,"52.86,70.71"
2024-05-28_13-46-34.643814,"62.74,65.94"
2024-05-28_13-46-34.676473,"67.41,76.92"
2024-05-28_13-46-34.707958,"54.97,75.15"
2024-05-28_13-46-34.738071,"53.28,74.55"
2024-05-28_13-46-34.770908,"91.45,70.55"
2024-05-28_13-46-34.803664,"76.65,69.65"
2024-05-28_13-46-34.836391,"86.49,61.77"
2024-05-28_13-46-34.869121,"80.96,40.86"
2024-05-28_13-46-34.901831,"66.55,56.31"
2024-05-28_13-46-34.930563,"58.15,72.65"
2024-05-28_13-46-34.963355,"58.98,75.03"
2024-05-28_13-46-34.996166,"56.82,67.87"
2024-05-28_13-46-35.028935,"54.79,72.50"
2024-05-28_13-46-35.061815,"61.72,69.40"
2024-05-28_13-46-35.094373,"66.90,95.08"
2024-05-28_13-46-35.127132,"83.34,78.61"
2024-05-28_13-46-35.155879,"67.79,65.35"
2024-05-28_13-46-35.188657,"84.16,38.54"
2024-05-28_13-46-35.221402,"90.45,53.79"
2024-05-28_13-46-35.254209,"77.48,53.28"
2024-05-28_13-46-35.286945,"52.10,72.56"
2024-05-28_13-46-35.319667,"57.39,65.41"
2024-05-28_13-46-35.352334,"54.75,70.82"
2024-05-28_13-46-35.381084,"68.90,68.23"
2024-05-28_13-46-35.413895,"52.41,80.74"
2024-05-28_13-46-35.446722,"69.04,77.54"
2024-05-28_13-46-35.479421,"80.67,68.37"
2024-05-28_13-46-35.512221,"80.33,74.14"
2024-05-28_13-46-35.544931,"69.50,78.82"
2024-05-28_13-46-35.577612,"65.15,47.48"
2024-05-28_13-46-35.606427,"63.16,72.58"
2024-05-28_13-46-35.639604,"58.04,65.62"
2024-05-28_13-46-35.671944,"48.04,69.11"
2024-05-28_13-46-35.704743,"61.19,76.71"
2024-05-28_13-46-35.737533,"64.27,69.50"
2024-05-28_13-46-35.770157,"51.82,73.29"
2024-05-28_13-46-35.802892,"59.30,73.47"
2024-05-28_13-46-35.832135,"87.50,83.82"
2024-05-28_13-46-35.864497,"77.66,61.21"
2024-05-28_13-46-35.897205,"90.62,44.31"
2024-05-28_13-46-35.929914,"79.69,60.24"
2024-05-28_13-46-35.962703,"68.30,46.21"
2024-05-28_13-46-35.995546,"52.98,75.88"
2024-05-28_13-46-36.028370,"54.50,71.87"
2024-05-28_13-46-36.056904,"59.20,65.54"
2024-05-28_13-46-36.089711,"67.28,72.07"
2024-05-28_13-46-36.123343,"56.71,69.67"
2024-05-28_13-46-36.155212,"71.20,81.94"
2024-05-28_13-46-36.187999,"72.49,77.68"
2024-05-28_13-46-36.220792,"82.20,66.81"
2024-05-28_13-46-36.253449,"82.04,34.02"
2024-05-28_13-46-36.282143,"67.81,45.52"
2024-05-28_13-46-36.314973,"54.41,64.08"
2024-05-28_13-46-36.347746,"51.62,70.76"
2024-05-28_13-46-36.380480,"61.09,65.64"
2024-05-28_13-46-36.413291,"66.75,69.77"
2024-05-28_13-46-36.446055,"64.33,79.25"
2024-05-28_13-46-36.478827,"50.20,71.16"
2024-05-28_13-46-36.511510,"92.85,78.24"
2024-05-28_13-46-36.540277,"68.49,62.87"
2024-05-28_13-46-36.573533,"84.66,78.31"
2024-05-28_13-46-36.605812,"78.69,40.72"
2024-05-28_13-46-36.638569,"66.52,61.61"
2024-05-28_13-46-36.671337,"66.17,59.20"
2024-05-28_13-46-36.704041,"56.03,64.67"
2024-05-28_13-46-36.736696,"57.03,75.26"
2024-05-28_13-46-36.765520,"51.97,73.51"
2024-05-28_13-46-36.798277,"75.11,68.28"
2024-05-28_13-46-36.830986,"54.98,76.00"
2024-05-28_13-46-36.863790,"86.90,69.46"
2024-05-28_13-46-36.896594,"59.89,79.96"
2024-05-28_13-46-36.929336,"80.46,61.64"
2024-05-28_13-46-36.962029,"100.15,45.98"
2024-05-28_13-46-37.011497,"69.13,55.95"
2024-05-28_13-46-37.027192,"72.36,61.94"
2024-05-28_13-46-37.056380,"53.73,65.71"
2024-05-28_13-46-37.089128,"53.76,70.88"
2024-05-28_13-46-37.121892,"63.78,66.32"
2024-05-28_13-46-37.154588,"69.35,72.53"
2024-05-28_13-46-37.187326,"52.09,80.26"
2024-05-28_13-46-37.216051,"87.79,74.15"
2024-05-28_13-46-37.248853,"74.35,76.66"
2024-05-28_13-46-37.281613,"79.26,67.51"
2024-05-28_13-46-37.314341,"97.45,40.23"
2024-05-28_13-46-37.347110,"76.42,63.61"
2024-05-28_13-46-37.379859,"54.19,46.82"
2024-05-28_13-46-37.412548,"52.05,70.89"
2024-05-28_13-46-37.441338,"61.21,65.74"
2024-05-28_13-46-37.474053,"58.27,76.87"
2024-05-28_13-46-37.506921,"61.58,73.13"
2024-05-28_13-46-37.539625,"54.33,69.55"
2024-05-28_13-46-37.572461,"98.58,84.67"
2024-05-28_13-46-37.605075,"79.56,61.85"
2024-05-28_13-46-37.637778,"76.19,62.30"
2024-05-28_13-46-37.666698,"89.30,41.77"
2024-05-28_13-46-37.699425,"58.66,68.11"
2024-05-28_13-46-37.732347,"54.57,55.77"
2024-05-28_13-46-37.765018,"57.27,74.93"
2024-05-28_13-46-37.797646,"58.39,67.21"
2024-05-28_13-46-37.830423,"54.66,70.80"
2024-05-28_13-46-37.863080,"78.84,69.53"
2024-05-28_13-46-37.891842,"49.91,86.25"
2024-05-28_13-46-37.924585,"68.06,81.57"
2024-05-28_13-46-37.957403,"77.15,72.23"
2024-05-28_13-46-37.990205,"80.08,60.07"
2024-05-28_13-46-38.023765,"93.04,46.55"
2024-05-28_13-46-38.055629,"61.84,47.63"
2024-05-28_13-46-38.088337,"60.71,60.71"
2024-05-28_13-46-38.117176,"55.03,64.39"
2024-05-28_13-46-38.149900,"53.31,70.36"
2024-05-28_13-46-38.182636,"63.39,66.90"
2024-05-28_13-46-38.215466,"59.74,78.53"
2024-05-28_13-46-38.248233,"51.64,74.35"
2024-05-28_13-46-38.280924,"84.08,76.27"
2024-05-28_13-46-38.313588,"71.98,74.95"
2024-05-28_13-46-38.342444,"86.25,49.06"
2024-05-28_13-46-38.375128,"76.68,40.82"
2024-05-28_13-46-38.407994,"71.29,67.19"
2024-05-28_13-46-38.440729,"50.75,64.91"
2024-05-28_13-46-38.473454,"47.60,69.02"
2024-05-28_13-46-38.506216,"63.25,76.55"
2024-05-28_13-46-38.538950,"67.01,68.08"
2024-05-28_13-46-38.567647,"76.50,77.17"
2024-05-28_13-46-38.600453,"55.29,69.30"
2024-05-28_13-46-38.633194,"88.06,86.21"
2024-05-28_13-46-38.665961,"76.47,76.38"
2024-05-28_13-46-38.698750,"81.72,45.99"
2024-05-28_13-46-38.731476,"91.53,38.21"
2024-05-28_13-46-38.764184,"68.76,63.93"
2024-05-28_13-46-38.796906,"58.47,62.66"
2024-05-28_13-46-38.825667,"51.83,71.06"
2024-05-28_13-46-38.858546,"59.03,65.24"
2024-05-28_13-46-38.891317,"54.44,71.31"
2024-05-28_13-46-38.924406,"70.07,69.86"
2024-05-28_13-46-38.956792,"50.16,85.35"
2024-05-28_13-46-38.989516,"94.17,70.68"
2024-05-28_13-46-39.022373,"67.68,69.03"
2024-05-28_13-46-39.050998,"83.83,57.38"
2024-05-28_13-46-39.083808,"89.80,46.72"
2024-05-28_13-46-39.116554,"58.39,59.97"
2024-05-28_13-46-39.149296,"64.86,74.44"
2024-05-28_13-46-39.182218,"59.45,65.36"
2024-05-28_13-46-39.214771,"47.81,70.48"
2024-05-28_13-46-39.247477,"62.26,76.60"
2024-05-28_13-46-39.276780,"67.25,69.53"
2024-05-28_13-46-39.346941,"51.25,75.10"
2024-05-28_13-46-39.347369,"90.18,69.85"
2024-05-28_13-46-39.394682,"71.58,79.96"
2024-05-28_13-46-39.407349,"80.11,60.68"
2024-05-28_13-46-39.439951,"75.20,44.19"
2024-05-28_13-46-39.472724,"72.99,50.15"
2024-05-28_13-46-39.501612,"65.39,65.83"
2024-05-28_13-46-39.534314,"54.46,76.45"
2024-05-28_13-46-39.567056,"52.18,73.84"
2024-05-28_13-46-39.599873,"59.36,65.62"
2024-05-28_13-46-39.632596,"66.83,73.81"
2024-05-28_13-46-39.665277,"56.33,70.47"
2024-05-28_13-46-39.697989,"82.63,81.55"
2024-05-28_13-46-39.726806,"73.87,76.68"
2024-05-28_13-46-39.759553,"80.46,49.52"
2024-05-28_13-46-39.792294,"83.69,34.59"
2024-05-28_13-46-39.825034,"67.13,70.54"
2024-05-28_13-46-39.857970,"53.20,63.54"
2024-05-28_13-46-39.890500,"52.35,70.58"
2024-05-28_13-46-39.923239,"60.56,66.63"
2024-05-28_13-46-39.952103,"65.94,70.49"
2024-05-28_13-46-39.984816,"62.54,77.99"
2024-05-28_13-46-40.017576,"50.10,83.75"
2024-05-28_13-46-40.050370,"99.06,67.39"
2024-05-28_13-46-40.083128,"69.42,71.09"
2024-05-28_13-46-40.115847,"85.33,61.93"
2024-05-28_13-46-40.148511,"80.90,41.35"
2024-05-28_13-46-40.177454,"65.46,59.75"
2024-05-28_13-46-40.210092,"67.03,58.46"
2024-05-28_13-46-40.242903,"59.41,65.33"
2024-05-28_13-46-40.275565,"58.27,75.48"
2024-05-28_13-46-40.308350,"52.54,71.99"
2024-05-28_13-46-40.341198,"72.44,68.86"
2024-05-28_13-46-40.373850,"54.73,75.08"
2024-05-28_13-46-40.402611,"85.42,74.23"
2024-05-28_13-46-40.435418,"61.43,80.40"
2024-05-28_13-46-40.468242,"80.17,41.63"
2024-05-28_13-46-40.500882,"99.99,46.42"
2024-05-28_13-46-40.533645,"50.60,56.90"
2024-05-28_13-46-40.566343,"56.91,77.71"
2024-05-28_13-46-40.599059,"55.76,65.74"
2024-05-28_13-46-40.627962,"54.58,70.70"
2024-05-28_13-46-40.660584,"64.15,67.41"
2024-05-28_13-46-40.693397,"64.77,71.21"
2024-05-28_13-46-40.726127,"50.83,79.95"
2024-05-28_13-46-40.758920,"83.56,70.62"
2024-05-28_13-46-40.791611,"73.16,76.30"
2024-05-28_13-46-40.824344,"83.70,49.40"
2024-05-28_13-46-40.853118,"82.17,40.42"
2024-05-28_13-46-40.886042,"71.36,68.73"
2024-05-28_13-46-40.918805,"46.42,64.36"
2024-05-28_13-46-40.951485,"52.48,70.66"
2024-05-28_13-46-40.984165,"58.99,66.00"
2024-05-28_13-46-41.016980,"70.19,76.53"
2024-05-28_13-46-41.049664,"58.47,72.97"
2024-05-28_13-46-41.078476,"50.74,71.81"
2024-05-28_13-46-41.111990,"79.98,77.11"
2024-05-28_13-46-41.143928,"79.23,73.22"
2024-05-28_13-46-41.176695,"74.46,61.89"
2024-05-28_13-46-41.209444,"88.72,41.94"
2024-05-28_13-46-41.242655,"58.52,68.55"
2024-05-28_13-46-41.274900,"57.41,55.76"
2024-05-28_13-46-41.303676,"55.38,74.53"
2024-05-28_13-46-41.336438,"59.11,66.50"
2024-05-28_13-46-41.369219,"53.19,72.71"
2024-05-28_13-46-41.401952,"80.90,68.60"
2024-05-28_13-46-41.434701,"48.98,86.41"
2024-05-28_13-46-41.467596,"88.00,85.16"
2024-05-28_13-46-41.500129,"60.17,70.40"
2024-05-28_13-46-41.529158,"78.32,75.21"
2024-05-28_13-46-41.561873,"79.29,66.56"
2024-05-28_13-46-41.594465,"59.85,77.07"
2024-05-28_13-46-41.627304,"71.33,59.45"
2024-05-28_13-46-41.660064,"55.22,64.46"
2024-05-28_13-46-41.692887,"54.54,71.39"
2024-05-28_13-46-41.725473,"62.24,66.42"
2024-05-28_13-46-41.758158,"67.16,78.01"
2024-05-28_13-46-41.786949,"50.70,76.02"
2024-05-28_13-46-41.819751,"88.73,70.00"
2024-05-28_13-46-41.852654,"71.67,75.38"
2024-05-28_13-46-41.885267,"84.31,48.60"
2024-05-28_13-46-41.918084,"87.22,40.97"
2024-05-28_13-46-41.950730,"74.53,51.40"
2024-05-28_13-46-41.983471,"63.39,48.22"
2024-05-28_13-46-42.012238,"46.02,70.05"
2024-05-28_13-46-42.044997,"61.41,75.00"
2024-05-28_13-46-42.077725,"72.50,69.44"
2024-05-28_13-46-42.110594,"62.88,73.13"
2024-05-28_13-46-42.143303,"55.77,70.27"
2024-05-28_13-46-42.175979,"90.62,85.47"
2024-05-28_13-46-42.208678,"77.40,76.13"
2024-05-28_13-46-42.237601,"79.65,64.15"
2024-05-28_13-46-42.270256,"90.71,37.96"
2024-05-28_13-46-42.303113,"82.80,61.87"
2024-05-28_13-46-42.335799,"54.74,62.10"
2024-05-28_13-46-42.368538,"52.31,70.91"
2024-05-28_13-46-42.401327,"61.27,66.14"
2024-05-28_13-46-42.434000,"54.19,71.35"
2024-05-28_13-46-42.462776,"68.69,68.77"
2024-05-28_13-46-42.495693,"52.22,83.54"
2024-05-28_13-46-42.528385,"92.80,71.78"
2024-05-28_13-46-42.561042,"67.55,68.54"
2024-05-28_13-46-42.593841,"76.86,73.30"
2024-05-28_13-46-42.626622,"63.56,50.96"
2024-05-28_13-46-42.659277,"58.05,58.88"
2024-05-28_13-46-42.688039,"67.88,74.23"
2024-05-28_13-46-42.720812,"62.56,66.39"
2024-05-28_13-46-42.753632,"48.01,69.55"
2024-05-28_13-46-42.786367,"75.09,76.86"
2024-05-28_13-46-42.819109,"59.56,70.81"
2024-05-28_13-46-42.851768,"51.97,72.95"
2024-05-28_13-46-42.884606,"95.10,76.60"
2024-05-28_13-46-42.913413,"78.95,78.06"
2024-05-28_13-46-42.946307,"86.71,41.01"
2024-05-28_13-46-42.978878,"67.56,42.77"
2024-05-28_13-46-43.011612,"76.56,51.25"
2024-05-28_13-46-43.044494,"54.85,64.32"
2024-05-28_13-46-43.077193,"57.86,75.29"
2024-05-28_13-46-43.109807,"55.58,71.98"
2024-05-28_13-46-43.138596,"75.47,69.28"
2024-05-28_13-46-43.171326,"54.78,74.51"
2024-05-28_13-46-43.204153,"88.46,86.13"
2024-05-28_13-46-43.236976,"60.41,80.71"
2024-05-28_13-46-43.269641,"79.67,61.82"
2024-05-28_13-46-43.302532,"79.40,47.01"
2024-05-28_13-46-43.335232,"67.07,43.50"
2024-05-28_13-46-43.363863,"61.09,61.63"
2024-05-28_13-46-43.396652,"55.16,65.78"
2024-05-28_13-46-43.429337,"52.64,71.18"
2024-05-28_13-46-43.462154,"61.31,66.49"
2024-05-28_13-46-43.494897,"60.58,71.42"
2024-05-28_13-46-43.527709,"49.71,81.45"
2024-05-28_13-46-43.560420,"81.93,75.17"
2024-05-28_13-46-43.589139,"64.20,74.33"
2024-05-28_13-46-43.621871,"67.30,70.13"
2024-05-28_13-46-43.654711,"70.86,40.70"
2024-05-28_13-46-43.687422,"72.38,66.98"
2024-05-28_13-46-43.720180,"49.17,63.75"
2024-05-28_13-46-43.753015,"51.79,70.53"
2024-05-28_13-46-43.785700,"62.88,65.82"
2024-05-28_13-46-43.818338,"67.74,76.68"
2024-05-28_13-46-43.847159,"56.11,74.56"
2024-05-28_13-46-43.879962,"52.21,78.67"
2024-05-28_13-46-43.912684,"97.22,80.13"
2024-05-28_13-46-43.945518,"76.51,70.90"
2024-05-28_13-46-43.978211,"79.72,61.54"
2024-05-28_13-46-44.011256,"91.30,41.43"
2024-05-28_13-46-44.043661,"69.28,63.95"
2024-05-28_13-46-44.072406,"51.83,56.59"
2024-05-28_13-46-44.105207,"58.86,74.78"
2024-05-28_13-46-44.138114,"60.24,68.16"
2024-05-28_13-46-44.170919,"54.28,72.02"
2024-05-28_13-46-44.203551,"70.74,68.69"
2024-05-28_13-46-44.236187,"51.74,82.41"
2024-05-28_13-46-44.268886,"93.63,73.21"
2024-05-28_13-46-44.297704,"61.87,68.21"
2024-05-28_13-46-44.330463,"81.08,59.92"
2024-05-28_13-46-44.363218,"85.10,46.97"
2024-05-28_13-46-44.396055,"61.64,63.95"
2024-05-28_13-46-44.428765,"66.07,60.35"
2024-05-28_13-46-44.461522,"55.97,65.24"
2024-05-28_13-46-44.494145,"53.43,70.43"
2024-05-28_13-46-44.523349,"60.89,67.11"
2024-05-28_13-46-44.555785,"65.28,79.21"
2024-05-28_13-46-44.588560,"50.71,74.40"
2024-05-28_13-46-44.621262,"79.89,79.07"
2024-05-28_13-46-44.654152,"66.11,78.68"
2024-05-28_13-46-44.686714,"87.82,67.44"
2024-05-28_13-46-44.719460,"88.43,39.95"
2024-05-28_13-46-44.748254,"72.12,72.75"
2024-05-28_13-46-44.780952,"52.62,66.24"
2024-05-28_13-46-44.813776,"45.82,69.28"
2024-05-28_13-46-44.846565,"60.44,75.61"
2024-05-28_13-46-44.879265,"59.27,68.40"
2024-05-28_13-46-44.911983,"60.54,72.50"
2024-05-28_13-46-44.944847,"56.59,70.77"
2024-05-28_13-46-44.973660,"63.40,84.88"
2024-05-28_13-46-45.006320,"75.92,75.83"
2024-05-28_13-46-45.039041,"77.05,46.01"
2024-05-28_13-46-45.072504,"80.68,38.93"
2024-05-28_13-46-45.104893,"66.70,65.91"
2024-05-28_13-46-45.137449,"51.14,62.29"
2024-05-28_13-46-45.169968,"54.45,71.85"
2024-05-28_13-46-45.198787,"56.83,65.11"
2024-05-28_13-46-45.231524,"55.34,70.86"
2024-05-28_13-46-45.264626,"75.51,68.73"
2024-05-28_13-46-45.297073,"49.47,89.32"
2024-05-28_13-46-45.330198,"98.66,81.75"
2024-05-28_13-46-45.362522,"67.67,71.03"
2024-05-28_13-46-45.395377,"83.64,57.72"
2024-05-28_13-46-45.424112,"89.29,46.67"
2024-05-28_13-46-45.456858,"60.17,52.59"
2024-05-28_13-46-45.489649,"61.38,59.21"
2024-05-28_13-46-45.522395,"60.40,64.76"
2024-05-28_13-46-45.555105,"47.98,69.55"
2024-05-28_13-46-45.587858,"61.31,78.16"
2024-05-28_13-46-45.620578,"62.36,69.27"
2024-05-28_13-46-45.649344,"78.56,71.56"
2024-05-28_13-46-45.682052,"84.38,70.15"
2024-05-28_13-46-45.714827,"72.52,79.21"
2024-05-28_13-46-45.747627,"81.91,42.10"
2024-05-28_13-46-45.780342,"88.85,43.39"
2024-05-28_13-46-45.813097,"72.78,37.01"
2024-05-28_13-46-45.845807,"51.77,65.36"
2024-05-28_13-46-45.874530,"55.05,74.93"
2024-05-28_13-46-45.907351,"52.60,72.41"
2024-05-28_13-46-45.940177,"74.18,66.66"
2024-05-28_13-46-45.972843,"62.39,72.30"
2024-05-28_13-46-46.005633,"52.16,71.67"
2024-05-28_13-46-46.038477,"80.95,85.66"
2024-05-28_13-46-46.071058,"74.08,76.32"
2024-05-28_13-46-46.099915,"85.02,47.00"
2024-05-28_13-46-46.132567,"84.86,34.12"
2024-05-28_13-46-46.165384,"84.89,63.15"
2024-05-28_13-46-46.198182,"49.13,63.60"
2024-05-28_13-46-46.230920,"51.56,70.96"
2024-05-28_13-46-46.263701,"62.11,65.95"
2024-05-28_13-46-46.296427,"66.46,71.32"
2024-05-28_13-46-46.325103,"66.68,78.51"
2024-05-28_13-46-46.358025,"50.89,71.29"
2024-05-28_13-46-46.390735,"69.15,76.79"
2024-05-28_13-46-46.424052,"84.32,70.96"
2024-05-28_13-46-46.456210,"83.59,62.39"
2024-05-28_13-46-46.488950,"89.29,40.67"
2024-05-28_13-46-46.521959,"68.37,64.51"
2024-05-28_13-46-46.550407,"66.18,58.04"
2024-05-28_13-46-46.583150,"58.23,64.42"
2024-05-28_13-46-46.615910,"58.37,75.75"
2024-05-28_13-46-46.648673,"51.84,72.83"
2024-05-28_13-46-46.681386,"84.90,70.95"
2024-05-28_13-46-46.714183,"56.57,78.93"
2024-05-28_13-46-46.746972,"94.44,68.82"
2024-05-28_13-46-46.775748,"60.43,78.99"
2024-05-28_13-46-46.808542,"82.60,41.71"
2024-05-28_13-46-46.841179,"83.33,46.24"
2024-05-28_13-46-46.873917,"64.56,65.53"
2024-05-28_13-46-46.906735,"53.04,75.19"
2024-05-28_13-46-46.939571,"55.72,66.68"
2024-05-28_13-46-46.972172,"53.99,70.51"
2024-05-28_13-46-47.006252,"76.75,68.39"
2024-05-28_13-46-47.035630,"58.88,72.39"
2024-05-28_13-46-47.069656,"51.38,79.69"
2024-05-28_13-46-47.103064,"92.98,77.05"
2024-05-28_13-46-47.134694,"74.21,75.65"
2024-05-28_13-46-47.165155,"87.72,66.04"
2024-05-28_13-46-47.197649,"81.05,39.04"
2024-05-28_13-46-47.230216,"87.14,59.82"
2024-05-28_13-46-47.259160,"49.13,63.82"
2024-05-28_13-46-47.291883,"53.08,70.51"
2024-05-28_13-46-47.324630,"63.28,66.21"
2024-05-28_13-46-47.357416,"65.87,77.10"
2024-05-28_13-46-47.390030,"52.38,73.30"
2024-05-28_13-46-47.422926,"54.43,75.27"
2024-05-28_13-46-47.455609,"91.49,71.14"
2024-05-28_13-46-47.484241,"76.40,69.93"
2024-05-28_13-46-47.516986,"89.90,62.19"
2024-05-28_13-46-47.549832,"67.72,40.47"
2024-05-28_13-46-47.582514,"66.13,60.75"
2024-05-28_13-46-47.615288,"61.85,71.36"
2024-05-28_13-46-47.647945,"59.61,76.35"
2024-05-28_13-46-47.680755,"72.98,68.71"
2024-05-28_13-46-47.710133,"69.05,72.76"
2024-05-28_13-46-47.742314,"65.49,69.38"
2024-05-28_13-46-47.774973,"52.37,83.01"
2024-05-28_13-46-47.807781,"89.39,79.71"
2024-05-28_13-46-47.840556,"63.87,67.43"
2024-05-28_13-46-47.873402,"83.41,38.76"
2024-05-28_13-46-47.905913,"87.20,51.53"
2024-05-28_13-46-47.934779,"74.37,56.94"
2024-05-28_13-46-47.967524,"50.42,72.60"
2024-05-28_13-46-48.000313,"55.78,64.95"
2024-05-28_13-46-48.033079,"53.70,70.35"
2024-05-28_13-46-48.065827,"74.97,67.90"
2024-05-28_13-46-48.098589,"55.73,79.14"
2024-05-28_13-46-48.131267,"51.97,73.91"
2024-05-28_13-46-48.160012,"94.16,76.37"
2024-05-28_13-46-48.238729,"75.10,73.68"
2024-05-28_13-46-48.245747,"90.75,48.16"
2024-05-28_13-46-48.265180,"79.34,38.38"
2024-05-28_13-46-48.291453,"75.40,60.74"
2024-05-28_13-46-48.324196,"55.87,64.76"
2024-05-28_13-46-48.356595,"44.78,70.12"
2024-05-28_13-46-48.385303,"61.43,75.93"
2024-05-28_13-46-48.418065,"65.74,68.28"
2024-05-28_13-46-48.450808,"53.99,74.63"
2024-05-28_13-46-48.483536,"57.67,75.02"
2024-05-28_13-46-48.516383,"88.51,77.22"
2024-05-28_13-46-48.549074,"76.49,60.88"
2024-05-28_13-46-48.581754,"86.80,45.27"
2024-05-28_13-46-48.610563,"80.41,38.07"
2024-05-28_13-46-48.643328,"63.79,59.68"
2024-05-28_13-46-48.676121,"52.84,79.94"
2024-05-28_13-46-48.708874,"52.29,71.35"
2024-05-28_13-46-48.741839,"58.74,65.21"
2024-05-28_13-46-48.774346,"70.02,73.16"
2024-05-28_13-46-48.807251,"65.59,69.65"
2024-05-28_13-46-48.835828,"51.74,82.43"
2024-05-28_13-46-48.868630,"92.22,73.99"
2024-05-28_13-46-48.901373,"70.02,69.03"
2024-05-28_13-46-48.934119,"88.08,57.47"
2024-05-28_13-46-48.966940,"79.89,54.22"
2024-05-28_13-46-48.999700,"77.20,54.57"
2024-05-28_13-46-49.032309,"52.92,71.75"
2024-05-28_13-46-49.061204,"61.54,66.00"
2024-05-28_13-46-49.094269,"49.82,70.21"
2024-05-28_13-46-49.126628,"72.72,76.65"
2024-05-28_13-46-49.159448,"54.84,71.71"
2024-05-28_13-46-49.192154,"69.44,82.95"
2024-05-28_13-46-49.224913,"89.29,64.15"
2024-05-28_13-46-49.257606,"77.80,62.53"
2024-05-28_13-46-49.286549,"87.59,41.73"
2024-05-28_13-46-49.319266,"67.69,42.23"
2024-05-28_13-46-49.351912,"74.42,65.87"
2024-05-28_13-46-49.384720,"55.35,65.01"
2024-05-28_13-46-49.417452,"55.83,75.16"
2024-05-28_13-46-49.450250,"52.69,72.68"
2024-05-28_13-46-49.482880,"70.82,67.67"
2024-05-28_13-46-49.511640,"57.35,72.65"
2024-05-28_13-46-49.544474,"68.61,75.06"
2024-05-28_13-46-49.577287,"79.54,76.79"
2024-05-28_13-46-49.609995,"75.00,76.27"
2024-05-28_13-46-49.642715,"89.40,47.36"
2024-05-28_13-46-49.675521,"46.57,72.22"
2024-05-28_13-46-49.708221,"64.07,80.69"
2024-05-28_13-46-49.740838,"54.68,64.54"
2024-05-28_13-46-49.769692,"53.84,70.37"
2024-05-28_13-46-49.802484,"64.50,66.84"
2024-05-28_13-46-49.835236,"58.30,70.54"
2024-05-28_13-46-49.868013,"53.38,78.84"
2024-05-28_13-46-49.900857,"52.07,74.29"
2024-05-28_13-46-49.933547,"91.47,75.19"
2024-05-28_13-46-49.966127,"72.78,68.64"
2024-05-28_13-46-49.995014,"93.11,62.36"
2024-05-28_13-46-50.029373,"67.96,40.65"
2024-05-28_13-46-50.060703,"59.43,59.64"
2024-05-28_13-46-50.093403,"65.14,74.04"
2024-05-28_13-46-50.127358,"59.20,64.74"
2024-05-28_13-46-50.158731,"57.04,75.83"
2024-05-28_13-46-50.191476,"51.68,71.92"
2024-05-28_13-46-50.220281,"62.30,70.32"
2024-05-28_13-46-50.253078,"56.44,78.71"
2024-05-28_13-46-50.285956,"92.10,63.96"
2024-05-28_13-46-50.318542,"61.14,79.21"
2024-05-28_13-46-50.351417,"80.98,61.64"
2024-05-28_13-46-50.383999,"80.23,46.39"
2024-05-28_13-46-50.419301,"66.21,49.73"
2024-05-28_13-46-50.489222,"66.32,76.06"
2024-05-28_13-46-50.494248,"55.94,65.94"
2024-05-28_13-46-50.512209,"52.71,71.56"
2024-05-28_13-46-50.544054,"62.38,67.04"
2024-05-28_13-46-50.578185,"59.87,71.60"
2024-05-28_13-46-50.610608,"66.09,85.66"
2024-05-28_13-46-50.642011,"58.99,73.22"
2024-05-28_13-46-50.671024,"67.69,63.30"
2024-05-28_13-46-50.703598,"102.15,47.32"
2024-05-28_13-46-50.736285,"67.91,58.24"
2024-05-28_13-46-50.769073,"71.26,60.11"
2024-05-28_13-46-50.801859,"53.66,64.41"
2024-05-28_13-46-50.834504,"53.94,72.18"
2024-05-28_13-46-50.867225,"67.24,67.76"
2024-05-28_13-46-50.896018,"69.02,78.69"
2024-05-28_13-46-50.928757,"73.21,78.09"
2024-05-28_13-46-50.961562,"86.18,78.17"
2024-05-28_13-46-50.994340,"68.23,61.50"
2024-05-28_13-46-51.027073,"80.48,49.80"
2024-05-28_13-46-51.059775,"85.98,41.50"
2024-05-28_13-46-51.092537,"77.30,62.59"
2024-05-28_13-46-51.121332,"61.48,48.36"
2024-05-28_13-46-51.154039,"45.36,70.00"
2024-05-28_13-46-51.186835,"63.41,76.18"
2024-05-28_13-46-51.219624,"61.39,69.70"
2024-05-28_13-46-51.252405,"56.19,74.99"
2024-05-28_13-46-51.285089,"82.91,70.48"
2024-05-28_13-46-51.317764,"86.45,89.01"
2024-05-28_13-46-51.347251,"75.19,63.12"
2024-05-28_13-46-51.379396,"73.79,46.70"
2024-05-28_13-46-51.412147,"90.82,38.14"
2024-05-28_13-46-51.444860,"84.86,64.02"
2024-05-28_13-46-51.477583,"53.19,62.15"
2024-05-28_13-46-51.510319,"53.69,71.52"
2024-05-28_13-46-51.543458,"60.13,66.27"
2024-05-28_13-46-51.572188,"57.23,72.24"
2024-05-28_13-46-51.604647,"76.35,70.48"
2024-05-28_13-46-51.637400,"69.64,76.37"
2024-05-28_13-46-51.670278,"96.32,74.66"
2024-05-28_13-46-51.702903,"63.08,54.23"
2024-05-28_13-46-51.735696,"82.73,37.20"
2024-05-28_13-46-51.768350,"90.12,61.18"
2024-05-28_13-46-51.797135,"60.03,66.16"
2024-05-28_13-46-51.829818,"68.87,74.66"
2024-05-28_13-46-51.862621,"64.48,65.88"
2024-05-28_13-46-51.895459,"47.51,70.21"
2024-05-28_13-46-51.928153,"66.27,78.54"
2024-05-28_13-46-51.961051,"77.55,71.63"
2024-05-28_13-46-51.993601,"80.62,86.12"
2024-05-28_13-46-52.022417,"80.98,72.52"
2024-05-28_13-46-52.055171,"70.13,64.91"
2024-05-28_13-46-52.087906,"82.95,40.96"
2024-05-28_13-46-52.120678,"80.50,42.93"
2024-05-28_13-46-52.153465,"87.15,57.63"
2024-05-28_13-46-52.186198,"56.44,63.96"
2024-05-28_13-46-52.218864,"57.74,75.18"
2024-05-28_13-46-52.247681,"56.53,73.03"
2024-05-28_13-46-52.280439,"63.09,66.58"
2024-05-28_13-46-52.313173,"83.19,75.38"
2024-05-28_13-46-52.346045,"84.12,75.33"
2024-05-28_13-46-52.378670,"79.15,86.27"
2024-05-28_13-46-52.411518,"71.79,44.34"
2024-05-28_13-46-52.444192,"87.55,49.01"
2024-05-28_13-46-52.476823,"73.93,33.63"
2024-05-28_13-46-52.505696,"88.35,64.37"
2024-05-28_13-46-52.538462,"52.71,64.21"
2024-05-28_13-46-52.571211,"52.52,72.21"
2024-05-28_13-46-52.604006,"64.76,66.24"
2024-05-28_13-46-52.636723,"80.06,73.18"
2024-05-28_13-46-52.669537,"84.91,72.55"
2024-05-28_13-46-52.702135,"67.93,74.38"
2024-05-28_13-46-52.730936,"88.41,80.70"
2024-05-28_13-46-52.763678,"71.32,52.40"
2024-05-28_13-46-52.796585,"92.32,40.87"
2024-05-28_13-46-52.829222,"78.40,86.42"
2024-05-28_13-46-52.872900,"64.83,45.47"
2024-05-28_13-46-52.896686,"53.42,70.67"
2024-05-28_13-46-52.927723,"62.02,65.00"
2024-05-28_13-46-52.956214,"60.74,76.67"
2024-05-28_13-46-52.989016,"56.54,76.46"
2024-05-28_13-46-53.021764,"77.99,70.47"
2024-05-28_13-46-53.054577,"82.98,85.55"
2024-05-28_13-46-53.087355,"82.45,72.07"
2024-05-28_13-46-53.120009,"62.96,64.61"
2024-05-28_13-46-53.152722,"83.70,41.91"
2024-05-28_13-46-53.181494,"83.95,72.51"
2024-05-28_13-46-53.214299,"79.38,58.29"
2024-05-28_13-46-53.247053,"55.93,74.63"
2024-05-28_13-46-53.279849,"57.36,67.82"
2024-05-28_13-46-53.312570,"55.31,71.82"
2024-05-28_13-46-53.345371,"68.59,67.10"
2024-05-28_13-46-53.377956,"73.36,76.63"
2024-05-28_13-46-53.406783,"82.39,88.86"
2024-05-28_13-46-53.439583,"78.55,78.12"
2024-05-28_13-46-53.472295,"71.97,41.02"
2024-05-28_13-46-53.505073,"91.28,48.53"
2024-05-28_13-46-53.537833,"67.57,67.97"
2024-05-28_13-46-53.570530,"87.48,65.64"
2024-05-28_13-46-53.603249,"50.79,64.50"
2024-05-28_13-46-53.632047,"55.13,70.06"
2024-05-28_13-46-53.664808,"76.26,67.82"
2024-05-28_13-46-53.697600,"74.76,80.74"
2024-05-28_13-46-53.730399,"66.42,76.66"
2024-05-28_13-46-53.763086,"70.83,73.34"
2024-05-28_13-46-53.795844,"89.89,83.05"
2024-05-28_13-46-53.828489,"72.62,53.63"
2024-05-28_13-46-53.857277,"82.54,42.03"
2024-05-28_13-46-53.890090,"67.87,62.76"
2024-05-28_13-46-53.922811,"67.80,57.20"
2024-05-28_13-46-53.955633,"57.87,71.54"
2024-05-28_13-46-53.988388,"61.50,75.34"
2024-05-28_13-46-54.021046,"60.72,68.29"
2024-05-28_13-46-54.053940,"57.70,73.07"
2024-05-28_13-46-54.082571,"76.65,70.34"
2024-05-28_13-46-54.115369,"83.79,83.36"
2024-05-28_13-46-54.148140,"88.88,82.37"
2024-05-28_13-46-54.180815,"57.47,51.43"
2024-05-28_13-46-54.213645,"79.66,40.27"
2024-05-28_13-46-54.246367,"95.49,50.07"
2024-05-28_13-46-54.279140,"62.11,72.22"
2024-05-28_13-46-54.307883,"55.04,73.91"
2024-05-28_13-46-54.340769,"55.17,64.77"
2024-05-28_13-46-54.374435,"55.95,70.89"
2024-05-28_13-46-54.406171,"68.14,68.33"
2024-05-28_13-46-54.438906,"66.89,79.29"
2024-05-28_13-46-54.471611,"81.85,77.01"
2024-05-28_13-46-54.504328,"81.25,80.23"
2024-05-28_13-46-54.533065,"68.00,60.69"
2024-05-28_13-46-54.565834,"81.25,50.16"
2024-05-28_13-46-54.598681,"72.69,71.29"
2024-05-28_13-46-54.631347,"84.95,59.98"
2024-05-28_13-46-54.664214,"50.47,65.37"
2024-05-28_13-46-54.696992,"46.58,71.05"
2024-05-28_13-46-54.729619,"65.07,78.06"
2024-05-28_13-46-54.758374,"59.03,67.28"
2024-05-28_13-46-54.791200,"56.81,74.48"
2024-05-28_13-46-54.823928,"82.89,70.69"
2024-05-28_13-46-54.856702,"86.90,79.71"
2024-05-28_13-46-54.889471,"73.73,63.32"
2024-05-28_13-46-54.922201,"72.26,48.60"
2024-05-28_13-46-54.954885,"88.99,38.24"
2024-05-28_13-46-54.983666,"83.22,61.81"
2024-05-28_13-46-55.016370,"53.79,62.32"
2024-05-28_13-46-55.049238,"52.87,71.97"
2024-05-28_13-46-55.081942,"59.02,65.24"
2024-05-28_13-46-55.114703,"57.20,72.80"
2024-05-28_13-46-55.150031,"75.41,71.41"
2024-05-28_13-46-55.180190,"72.14,87.90"
2024-05-28_13-46-55.208902,"95.62,75.49"
2024-05-28_13-46-55.241682,"63.40,54.86"
2024-05-28_13-46-55.274412,"76.39,36.74"
2024-05-28_13-46-55.307235,"87.26,62.44"
2024-05-28_13-46-55.340011,"61.91,75.41"
2024-05-28_13-46-55.372790,"75.62,59.80"
2024-05-28_13-46-55.405505,"62.19,65.11"
2024-05-28_13-46-55.438140,"48.55,71.34"
2024-05-28_13-46-55.466936,"67.66,78.03"
2024-05-28_13-46-55.499778,"70.19,69.63"
2024-05-28_13-46-55.532549,"71.73,78.35"
2024-05-28_13-46-55.565220,"88.87,79.69"
2024-05-28_13-46-55.598020,"65.47,67.20"
2024-05-28_13-46-55.630673,"76.58,41.38"
2024-05-28_13-46-55.663463,"74.28,44.15"
2024-05-28_13-46-55.692295,"43.17,76.90"
2024-05-28_13-46-55.724958,"65.50,68.58"
2024-05-28_13-46-55.757790,"57.78,75.79"
2024-05-28_13-46-55.790564,"55.75,71.56"
2024-05-28_13-46-55.823354,"61.68,66.42"
2024-05-28_13-46-55.856078,"59.38,75.96"
2024-05-28_13-46-55.888724,"93.85,71.66"
2024-05-28_13-46-55.917560,"80.06,86.99"
2024-05-28_13-46-55.950275,"71.88,63.53"
2024-05-28_13-46-55.982988,"77.79,49.35"
2024-05-28_13-46-56.015781,"82.46,35.05"
2024-05-28_13-46-56.048606,"71.27,79.48"
2024-05-28_13-46-56.081292,"52.23,64.87"
2024-05-28_13-46-56.113945,"54.22,70.82"
2024-05-28_13-46-56.142883,"66.04,67.96"
2024-05-28_13-46-56.175494,"51.28,72.02"
2024-05-28_13-46-56.208284,"77.43,80.05"
2024-05-28_13-46-56.241161,"72.09,82.26"
2024-05-28_13-46-56.273879,"95.89,74.00"
2024-05-28_13-46-56.306522,"68.57,71.62"
2024-05-28_13-46-56.339256,"82.27,43.09"
2024-05-28_13-46-56.368017,"80.98,41.15"
2024-05-28_13-46-56.400802,"66.40,60.06"
2024-05-28_13-46-56.433564,"72.13,57.81"
2024-05-28_13-46-56.466313,"61.64,65.42"
2024-05-28_13-46-56.499087,"58.02,75.43"
2024-05-28_13-46-56.531797,"56.09,73.25"
2024-05-28_13-46-56.564496,"71.69,69.27"
2024-05-28_13-46-56.593371,"74.35,79.79"
2024-05-28_13-46-56.626368,"92.14,70.13"
2024-05-28_13-46-56.658834,"58.91,81.05"
2024-05-28_13-46-56.691664,"70.46,60.67"
2024-05-28_13-46-56.724323,"66.45,68.38"
2024-05-28_13-46-56.757098,"71.60,56.54"
2024-05-28_13-46-56.789774,"71.78,61.58"
2024-05-28_13-46-56.818536,"55.72,64.99"
2024-05-28_13-46-56.851349,"56.21,70.77"
2024-05-28_13-46-56.884125,"68.34,67.65"
2024-05-28_13-46-56.916872,"61.94,74.22"
2024-05-28_13-46-56.949672,"87.62,80.79"
2024-05-28_13-46-56.982274,"80.62,77.95"
2024-05-28_13-46-57.015096,"71.64,61.87"
2024-05-28_13-46-57.043845,"82.80,49.50"
2024-05-28_13-46-57.076566,"81.89,40.23"
2024-05-28_13-46-57.109418,"74.74,65.72"
2024-05-28_13-46-57.142336,"46.96,64.08"
2024-05-28_13-46-57.175423,"54.48,70.40"
2024-05-28_13-46-57.207726,"62.61,67.49"
2024-05-28_13-46-57.245046,"60.59,77.05"
2024-05-28_13-46-57.269152,"66.35,74.72"
2024-05-28_13-46-57.301847,"58.04,82.84"
2024-05-28_13-46-57.334639,"95.96,71.05"
2024-05-28_13-46-57.367494,"74.31,72.07"
2024-05-28_13-46-57.400234,"79.08,42.23"
2024-05-28_13-46-57.432951,"91.78,41.21"
2024-05-28_13-46-57.465596,"74.25,62.58"
2024-05-28_13-46-57.494385,"58.71,55.64"
2024-05-28_13-46-57.527151,"59.43,74.85"
2024-05-28_13-46-57.559927,"59.51,66.69"
2024-05-28_13-46-57.592746,"55.42,74.52"
2024-05-28_13-46-57.625424,"75.26,68.75"
2024-05-28_13-46-57.658244,"72.68,85.68"
2024-05-28_13-46-57.690868,"95.21,77.50"
2024-05-28_13-46-57.719638,"54.24,69.41"
2024-05-28_13-46-57.752457,"70.81,63.40"
2024-05-28_13-46-57.785199,"94.91,47.36"
2024-05-28_13-46-57.817948,"66.68,57.97"
2024-05-28_13-46-57.850734,"70.71,59.95"
2024-05-28_13-46-57.883509,"55.63,64.13"
2024-05-28_13-46-57.916140,"56.53,71.93"
2024-05-28_13-46-57.944916,"67.09,68.23"
2024-05-28_13-46-57.977737,"65.16,79.16"
2024-05-28_13-46-58.010462,"68.71,78.58"
2024-05-28_13-46-58.043330,"81.73,78.11"
2024-05-28_13-46-58.075947,"69.31,60.66"
2024-05-28_13-46-58.108734,"85.98,48.83"
2024-05-28_13-46-58.141494,"78.17,40.91"
2024-05-28_13-46-58.174115,"74.49,76.09"
2024-05-28_13-46-58.202968,"68.42,66.07"
2024-05-28_13-46-58.235750,"45.08,69.90"
2024-05-28_13-46-58.268494,"63.16,75.96"
2024-05-28_13-46-58.301374,"61.52,69.73"
2024-05-28_13-46-58.333962,"70.90,75.02"
2024-05-28_13-46-58.366720,"77.75,70.49"
2024-05-28_13-46-58.399407,"74.50,89.32"
2024-05-28_13-46-58.428262,"73.89,61.92"
2024-05-28_13-46-58.461028,"76.92,46.19"
2024-05-28_13-46-58.493747,"90.48,38.09"
2024-05-28_13-46-58.526501,"70.54,65.93"
2024-05-28_13-46-58.559300,"51.49,62.79"
2024-05-28_13-46-58.592061,"53.53,71.98"
2024-05-28_13-46-58.624662,"59.76,66.35"
2024-05-28_13-46-58.653607,"57.26,72.35"
2024-05-28_13-46-58.686275,"86.33,69.42"
2024-05-28_13-46-58.719041,"68.25,81.75"
2024-05-28_13-46-58.751822,"79.54,82.54"
2024-05-28_13-46-58.784527,"64.17,72.69"
2024-05-28_13-46-58.817227,"80.76,37.65"
2024-05-28_13-46-58.849963,"89.45,47.04"
2024-05-28_13-46-58.878715,"66.18,57.86"
2024-05-28_13-46-58.911564,"70.82,60.15"
2024-05-28_13-46-58.944347,"61.92,65.81"
2024-05-28_13-46-58.977022,"48.43,70.02"
2024-05-28_13-46-59.009825,"64.53,76.52"
2024-05-28_13-46-59.042712,"69.57,70.65"
2024-05-28_13-46-59.075219,"69.04,76.41"
2024-05-28_13-46-59.104116,"91.70,71.83"
2024-05-28_13-46-59.136850,"65.72,68.54"
2024-05-28_13-46-59.169586,"77.30,41.57"
2024-05-28_13-46-59.202356,"85.35,44.45"
2024-05-28_13-46-59.235152,"79.09,57.32"
2024-05-28_13-46-59.267854,"74.35,46.80"
2024-05-28_13-46-59.300504,"54.69,75.70"
2024-05-28_13-46-59.329279,"55.97,72.10"
2024-05-28_13-46-59.362079,"61.32,67.90"
2024-05-28_13-46-59.394880,"56.36,74.41"
2024-05-28_13-46-59.427601,"91.90,71.40"
2024-05-28_13-46-59.468192,"79.27,86.57"
2024-05-28_13-46-59.493082,"71.36,62.88"
2024-05-28_13-46-59.526075,"81.80,49.45"
2024-05-28_13-46-59.554566,"83.47,34.20"
2024-05-28_13-46-59.587365,"69.51,75.53"
2024-05-28_13-46-59.620113,"70.21,65.33"
2024-05-28_13-46-59.652895,"52.85,72.34"
2024-05-28_13-46-59.685644,"61.86,66.11"
2024-05-28_13-46-59.718427,"79.37,74.63"
2024-05-28_13-46-59.751096,"78.50,81.97"
2024-05-28_13-46-59.779855,"73.97,72.11"
2024-05-28_13-46-59.812614,"79.22,80.79"
2024-05-28_13-46-59.845380,"69.84,72.85"
2024-05-28_13-46-59.878143,"78.31,42.77"
2024-05-28_13-46-59.910978,"90.12,41.46"
2024-05-28_13-46-59.943627,"68.54,62.80"
2024-05-28_13-46-59.976662,"80.13,59.34"
2024-05-28_13-47-00.005107,"59.35,65.11"
2024-05-28_13-47-00.037911,"56.78,76.02"
2024-05-28_13-47-00.070620,"56.74,74.80"
2024-05-28_13-47-00.103457,"73.70,69.07"
2024-05-28_13-47-00.136228,"76.08,76.45"
2024-05-28_13-47-00.168917,"89.98,66.59"
2024-05-28_13-47-00.201611,"57.50,69.30"
2024-05-28_13-47-00.230466,"76.50,42.83"
2024-05-28_13-47-00.263152,"98.32,46.08"
2024-05-28_13-47-00.295877,"59.03,61.36"
2024-05-28_13-47-00.328670,"67.65,74.91"
2024-05-28_13-47-00.361435,"53.34,66.18"
2024-05-28_13-47-00.394225,"56.45,72.01"
2024-05-28_13-47-00.426858,"67.36,66.16"
2024-05-28_13-47-00.455671,"64.85,75.69"
2024-05-28_13-47-00.488484,"88.24,82.60"
2024-05-28_13-47-00.521172,"82.11,78.38"
2024-05-28_13-47-00.553986,"70.78,63.02"
2024-05-28_13-47-00.586719,"83.27,49.85"
2024-05-28_13-47-00.619507,"77.18,40.09"
2024-05-28_13-47-00.652177,"75.70,76.34"
2024-05-28_13-47-00.680946,"49.20,64.50"
2024-05-28_13-47-00.713679,"47.36,73.82"
2024-05-28_13-47-00.746510,"63.68,67.10"
2024-05-28_13-47-00.779203,"61.83,78.11"
2024-05-28_13-47-00.812000,"69.99,75.82"
2024-05-28_13-47-00.844773,"74.79,82.09"
2024-05-28_13-47-00.877402,"89.14,71.85"
2024-05-28_13-47-00.906217,"72.78,56.66"
2024-05-28_13-47-00.938971,"76.41,43.38"
2024-05-28_13-47-00.971713,"91.73,41.77"
2024-05-28_13-47-01.004517,"61.21,65.93"
2024-05-28_13-47-01.037281,"58.18,56.31"
2024-05-28_13-47-01.070004,"59.09,75.65"
2024-05-28_13-47-01.102772,"62.26,67.51"
2024-05-28_13-47-01.135426,"57.40,73.73"
2024-05-28_13-47-01.164256,"73.20,69.44"
2024-05-28_13-47-01.197031,"82.39,83.90"
2024-05-28_13-47-01.229735,"92.67,78.02"
2024-05-28_13-47-01.262564,"58.02,52.90"
2024-05-28_13-47-01.295350,"82.18,40.51"
2024-05-28_13-47-01.328179,"87.16,47.65"
2024-05-28_13-47-01.360683,"60.99,87.20"
2024-05-28_13-47-01.389509,"65.88,75.79"
2024-05-28_13-47-01.422267,"56.29,64.31"
2024-05-28_13-47-01.455029,"55.42,71.27"
2024-05-28_13-47-01.487807,"67.73,68.59"
2024-05-28_13-47-01.520605,"74.41,81.21"
2024-05-28_13-47-01.555770,"81.11,77.21"
2024-05-28_13-47-01.586171,"80.73,68.76"
2024-05-28_13-47-01.614748,"70.70,60.20"
2024-05-28_13-47-01.647563,"86.22,49.06"
2024-05-28_13-47-01.680260,"77.43,63.60"
2024-05-28_13-47-01.713060,"45.29,75.17"
2024-05-28_13-47-01.745837,"60.14,64.46"
2024-05-28_13-47-01.778535,"49.06,69.35"
2024-05-28_13-47-01.811266,"64.21,78.56"
2024-05-28_13-47-01.840026,"60.35,67.72"
2024-05-28_13-47-01.873310,"68.28,75.37"
2024-05-28_13-47-01.905589,"74.82,79.13"
2024-05-28_13-47-01.938345,"91.33,81.17"
2024-05-28_13-47-01.971081,"73.27,43.58"
2024-05-28_13-47-02.003770,"79.21,46.02"
2024-05-28_13-47-02.036520,"92.56,37.87"
2024-05-28_13-47-02.065275,"70.68,65.57"
2024-05-28_13-47-02.098086,"54.43,62.33"
2024-05-28_13-47-02.130921,"52.49,71.84"
2024-05-28_13-47-02.163624,"60.13,65.97"
2024-05-28_13-47-02.196356,"58.03,72.71"
2024-05-28_13-47-02.229038,"72.23,71.22"
2024-05-28_13-47-02.261787,"73.44,90.32"
2024-05-28_13-47-02.290576,"95.39,74.85"
2024-05-28_13-47-02.323687,"63.27,53.48"
2024-05-28_13-47-02.356208,"80.79,36.49"
2024-05-28_13-47-02.388868,"78.26,46.35"
2024-05-28_13-47-02.421612,"64.01,60.63"
2024-05-28_13-47-02.454406,"72.26,59.93"
2024-05-28_13-47-02.487067,"62.16,64.94"
2024-05-28_13-47-02.515800,"48.85,71.79"
2024-05-28_13-47-02.548588,"67.07,78.39"
2024-05-28_13-47-02.581373,"66.98,69.71"
2024-05-28_13-47-02.614130,"71.50,77.94"
2024-05-28_13-47-02.646936,"86.69,78.87"
2024-05-28_13-47-02.679661,"68.17,66.16"
2024-05-28_13-47-02.712310,"63.68,77.91"
2024-05-28_13-47-02.741246,"62.14,49.39"
2024-05-28_13-47-02.773829,"72.75,76.98"
2024-05-28_13-47-02.806696,"67.56,65.49"
2024-05-28_13-47-02.839440,"56.88,76.16"
2024-05-28_13-47-02.872208,"53.75,72.25"
2024-05-28_13-47-02.904870,"62.88,66.78"
2024-05-28_13-47-02.937572,"73.22,77.07"
2024-05-28_13-47-02.966372,"85.19,79.19"
2024-05-28_13-47-02.999154,"74.01,78.69"
2024-05-28_13-47-03.031919,"72.29,43.47"
2024-05-28_13-47-03.064666,"86.07,47.88"
2024-05-28_13-47-03.097448,"74.43,34.22"
2024-05-28_13-47-03.130193,"84.23,62.31"
2024-05-28_13-47-03.162917,"52.24,64.08"
2024-05-28_13-47-03.191773,"54.09,70.69"
2024-05-28_13-47-03.224389,"65.24,68.02"
2024-05-28_13-47-03.257222,"51.61,71.98"
2024-05-28_13-47-03.289945,"72.81,79.83"
2024-05-28_13-47-03.322732,"54.02,70.94"
2024-05-28_13-47-03.355494,"69.33,82.12"
2024-05-28_13-47-03.388212,"90.57,78.59"
2024-05-28_13-47-03.416991,"76.07,77.88"
2024-05-28_13-47-03.449681,"87.72,42.33"
2024-05-28_13-47-03.482433,"80.79,41.97"
2024-05-28_13-47-03.515229,"74.98,48.56"
2024-05-28_13-47-03.548188,"57.57,65.53"
2024-05-28_13-47-03.580734,"55.70,75.07"
2024-05-28_13-47-03.613448,"52.77,70.78"
2024-05-28_13-47-03.650882,"69.91,68.22"
2024-05-28_13-47-03.674893,"57.08,73.17"
2024-05-28_13-47-03.707729,"59.84,84.86"
2024-05-28_13-47-03.740512,"73.91,76.25"
2024-05-28_13-47-03.773549,"78.03,61.04"
2024-05-28_13-47-03.814368,"91.43,47.63"
2024-05-28_13-47-03.838759,"59.46,33.56"
2024-05-28_13-47-03.867481,"65.48,63.31"
2024-05-28_13-47-03.900233,"49.70,64.20"
2024-05-28_13-47-03.932988,"53.35,70.54"
2024-05-28_13-47-03.965781,"63.50,66.01"
2024-05-28_13-47-03.998545,"73.29,71.97"
2024-05-28_13-47-04.031230,"54.04,78.44"
2024-05-28_13-47-04.063985,"51.94,73.99"
2024-05-28_13-47-04.092755,"79.82,76.61"
2024-05-28_13-47-04.125462,"73.15,67.73"
2024-05-28_13-47-04.158252,"93.58,61.70"
2024-05-28_13-47-04.191047,"67.55,63.82"
2024-05-28_13-47-04.223859,"58.04,44.18"
2024-05-28_13-47-04.256593,"50.54,71.92"
2024-05-28_13-47-04.289401,"58.24,65.80"
2024-05-28_13-47-04.321954,"57.48,75.66"
2024-05-28_13-47-04.350816,"67.92,72.20"
2024-05-28_13-47-04.383556,"59.56,70.28"
2024-05-28_13-47-04.416307,"57.38,81.20"
2024-05-28_13-47-04.449104,"89.27,67.24"
2024-05-28_13-47-04.481813,"65.56,62.59"
2024-05-28_13-47-04.514559,"83.06,61.56"
2024-05-28_13-47-04.547270,"84.86,45.58"
2024-05-28_13-47-04.575997,"80.65,54.78"
2024-05-28_13-47-04.608794,"52.13,75.13"
2024-05-28_13-47-04.641556,"56.66,66.16"
2024-05-28_13-47-04.674386,"53.74,71.73"
2024-05-28_13-47-04.707130,"72.55,67.86"
2024-05-28_13-47-04.739777,"70.80,76.91"
2024-05-28_13-47-04.772508,"52.31,89.21"
2024-05-28_13-47-04.801362,"82.88,66.17"
2024-05-28_13-47-04.834165,"73.86,75.28"
2024-05-28_13-47-04.866856,"90.68,47.45"
2024-05-28_13-47-04.899746,"70.59,38.93"
2024-05-28_13-47-04.932514,"74.60,67.10"
2024-05-28_13-47-04.965053,"50.75,63.48"
2024-05-28_13-47-04.997818,"52.21,70.48"
2024-05-28_13-47-05.026721,"62.59,65.98"
2024-05-28_13-47-05.059357,"64.68,77.03"
2024-05-28_13-47-05.092146,"50.98,75.21"
2024-05-28_13-47-05.128693,"84.59,74.42"
2024-05-28_13-47-05.157664,"74.86,77.02"
2024-05-28_13-47-05.190356,"82.32,67.40"
2024-05-28_13-47-05.223320,"94.65,61.44"
2024-05-28_13-47-05.251831,"77.19,59.43"
2024-05-28_13-47-05.284603,"73.79,47.23"
2024-05-28_13-47-05.317385,"45.07,69.98"
2024-05-28_13-47-05.350185,"60.82,74.89"
2024-05-28_13-47-05.382891,"57.67,67.83"
2024-05-28_13-47-05.415580,"66.21,72.72"
2024-05-28_13-47-05.448367,"57.90,69.67"
2024-05-28_13-47-05.477095,"65.55,80.34"
2024-05-28_13-47-05.509897,"80.29,77.39"
2024-05-28_13-47-05.542641,"70.26,65.24"
2024-05-28_13-47-05.575593,"85.43,38.78"
2024-05-28_13-47-05.608179,"80.71,45.67"
2024-05-28_13-47-05.641102,"66.44,71.94"
2024-05-28_13-47-05.675167,"51.96,71.44"
2024-05-28_13-47-05.702387,"59.21,66.01"
2024-05-28_13-47-05.735150,"52.71,71.58"
2024-05-28_13-47-05.767937,"96.48,70.40"
2024-05-28_13-47-05.800693,"51.47,81.17"
2024-05-28_13-47-05.833423,"69.17,78.09"
2024-05-28_13-47-05.866253,"81.20,68.60"
2024-05-28_13-47-05.898837,"79.40,73.94"
2024-05-28_13-47-05.928122,"93.51,47.81"
2024-05-28_13-47-05.967927,"68.02,38.36"
2024-05-28_13-47-05.993554,"78.17,73.40"
2024-05-28_13-47-06.026442,"57.69,65.32"
2024-05-28_13-47-06.058727,"46.03,69.06"
2024-05-28_13-47-06.091466,"63.31,75.25"
2024-05-28_13-47-06.124131,"65.18,69.07"
2024-05-28_13-47-06.152927,"52.73,74.32"
2024-05-28_13-47-06.185712,"59.06,73.23"
2024-05-28_13-47-06.218485,"87.27,84.25"
2024-05-28_13-47-06.251259,"77.75,41.51"
2024-05-28_13-47-06.284429,"92.16,44.16"
2024-05-28_13-47-06.316678,"76.92,57.95"
2024-05-28_13-47-06.349403,"73.15,46.88"
2024-05-28_13-47-06.378175,"53.21,75.41"
2024-05-28_13-47-06.411046,"52.93,70.71"
2024-05-28_13-47-06.443725,"58.55,67.66"
2024-05-28_13-47-06.476457,"65.52,71.64"
2024-05-28_13-47-06.509296,"56.59,69.26"
2024-05-28_13-47-06.541978,"71.27,80.61"
2024-05-28_13-47-06.574665,"73.63,77.15"
2024-05-28_13-47-06.603489,"76.66,67.13"
2024-05-28_13-47-06.636244,"93.17,34.02"
2024-05-28_13-47-06.669023,"67.92,45.11"
2024-05-28_13-47-06.701761,"53.56,63.37"
2024-05-28_13-47-06.734611,"51.16,70.77"
2024-05-28_13-47-06.767291,"62.73,68.30"
2024-05-28_13-47-06.799949,"77.15,72.52"
2024-05-28_13-47-06.828760,"61.81,79.65"
2024-05-28_13-47-06.861475,"49.87,80.66"
2024-05-28_13-47-06.894286,"86.04,68.13"
2024-05-28_13-47-06.927079,"69.60,69.69"
2024-05-28_13-47-06.959771,"87.63,41.22"
2024-05-28_13-47-06.992548,"80.11,41.49"
2024-05-28_13-47-07.025219,"60.34,53.72"
2024-05-28_13-47-07.054006,"62.66,57.92"
2024-05-28_13-47-07.086793,"58.68,65.48"
2024-05-28_13-47-07.119552,"57.85,75.22"
2024-05-28_13-47-07.152353,"53.15,73.27"
2024-05-28_13-47-07.185066,"67.60,69.07"
2024-05-28_13-47-07.217841,"56.40,78.76"
2024-05-28_13-47-07.250511,"91.63,67.24"
2024-05-28_13-47-07.279270,"62.31,78.01"
2024-05-28_13-47-07.312089,"82.50,61.48"
2024-05-28_13-47-07.344847,"82.15,45.98"
2024-05-28_13-47-07.377566,"63.58,60.40"
2024-05-28_13-47-07.410317,"52.84,74.89"
2024-05-28_13-47-07.443143,"55.32,66.54"
2024-05-28_13-47-07.475806,"55.07,70.67"
2024-05-28_13-47-07.504607,"76.82,66.52"
2024-05-28_13-47-07.537384,"59.74,72.25"
2024-05-28_13-47-07.570072,"51.94,80.01"
2024-05-28_13-47-07.602866,"66.60,75.87"
2024-05-28_13-47-07.635620,"74.56,75.47"
2024-05-28_13-47-07.668374,"87.64,66.81"
2024-05-28_13-47-07.701047,"79.75,39.17"
2024-05-28_13-47-07.729871,"87.16,61.47"
2024-05-28_13-47-07.762586,"49.08,64.21"
2024-05-28_13-47-07.795344,"51.02,73.37"
2024-05-28_13-47-07.828149,"61.70,65.98"
2024-05-28_13-47-07.860876,"68.63,77.84"
2024-05-28_13-47-07.893694,"54.41,73.51"
2024-05-28_13-47-07.926370,"53.57,73.99"
2024-05-28_13-47-07.959036,"93.59,69.73"
2024-05-28_13-47-07.987849,"77.07,69.54"
2024-05-28_13-47-08.020632,"86.27,60.83"
2024-05-28_13-47-08.053431,"68.01,41.50"
2024-05-28_13-47-08.087804,"64.55,46.01"
2024-05-28_13-47-08.119053,"42.64,70.13"
2024-05-28_13-47-08.151679,"59.64,74.89"
2024-05-28_13-47-08.184478,"59.83,67.70"
2024-05-28_13-47-08.213124,"69.53,71.53"
2024-05-28_13-47-08.245896,"62.92,69.28"
2024-05-28_13-47-08.278631,"66.72,84.67"
2024-05-28_13-47-08.311467,"84.64,77.67"
2024-05-28_13-47-08.344192,"66.72,65.82"
2024-05-28_13-47-08.376875,"86.99,60.22"
2024-05-28_13-47-08.409552,"89.69,58.42"
2024-05-28_13-47-08.438403,"77.17,49.45"
2024-05-28_13-47-08.471159,"54.02,72.75"
2024-05-28_13-47-08.503935,"56.44,64.77"
2024-05-28_13-47-08.536702,"54.75,70.61"
2024-05-28_13-47-08.569451,"68.97,67.56"
2024-05-28_13-47-08.602201,"50.51,80.60"
2024-05-28_13-47-08.634864,"68.90,77.25"
2024-05-28_13-47-08.663651,"81.42,69.55"
2024-05-28_13-47-08.696464,"78.33,57.83"
2024-05-28_13-47-08.729238,"94.44,47.30"
2024-05-28_13-47-08.761962,"49.79,63.76"
2024-05-28_13-47-08.794726,"62.06,59.94"
2024-05-28_13-47-08.827479,"56.91,67.32"
2024-05-28_13-47-08.860245,"47.39,69.45"
2024-05-28_13-47-08.888963,"61.27,77.23"
2024-05-28_13-47-08.921682,"70.72,68.87"
2024-05-28_13-47-08.954495,"50.22,73.72"
2024-05-28_13-47-08.987234,"89.68,72.06"
2024-05-28_13-47-09.020048,"72.76,78.67"
2024-05-28_13-47-09.052715,"81.72,41.89"
2024-05-28_13-47-09.085407,"87.94,43.12"
2024-05-28_13-47-09.114172,"72.68,37.11"
2024-05-28_13-47-09.147043,"50.55,65.38"
2024-05-28_13-47-09.179732,"55.07,74.85"
2024-05-28_13-47-09.212483,"52.72,72.11"
2024-05-28_13-47-09.245323,"72.06,66.90"
2024-05-28_13-47-09.278690,"60.12,72.65"
2024-05-28_13-47-09.310858,"69.05,79.47"
2024-05-28_13-47-09.339453,"82.63,74.29"
2024-05-28_13-47-09.372252,"76.77,76.03"
2024-05-28_13-47-09.404998,"92.03,46.65"
2024-05-28_13-47-09.437776,"59.33,61.76"
2024-05-28_13-47-09.470595,"63.15,61.89"
2024-05-28_13-47-09.503275,"51.63,65.08"
2024-05-28_13-47-09.535993,"54.26,70.63"
2024-05-28_13-47-09.576762,"63.24,66.18"
2024-05-28_13-47-09.597551,"71.77,71.85"
2024-05-28_13-47-09.645048,"52.92,79.94"
2024-05-28_13-47-09.663336,"77.04,75.59"
2024-05-28_13-47-09.697383,"75.67,76.61"
2024-05-28_13-47-09.728572,"80.09,67.38"
2024-05-28_13-47-09.761326,"88.48,40.13"
2024-05-28_13-47-09.790020,"61.32,61.70"
2024-05-28_13-47-09.842407,"51.65,66.83"
2024-05-28_13-47-09.859996,"52.09,70.63"
2024-05-28_13-47-09.888344,"60.29,65.50"
2024-05-28_13-47-09.921212,"58.53,76.39"
2024-05-28_13-47-09.953879,"62.04,72.83"
2024-05-28_13-47-09.986626,"54.96,69.48"
2024-05-28_13-47-10.015282,"79.90,77.95"
2024-05-28_13-47-10.048079,"79.24,72.23"
2024-05-28_13-47-10.080765,"76.67,76.37"
2024-05-28_13-47-10.113624,"91.65,41.71"
2024-05-28_13-47-10.146699,"70.43,62.28"
2024-05-28_13-47-10.179120,"66.37,56.01"
2024-05-28_13-47-10.211770,"58.80,74.86"
2024-05-28_13-47-10.240587,"59.77,67.23"
2024-05-28_13-47-10.274174,"53.74,71.30"
2024-05-28_13-47-10.306092,"67.80,70.61"
2024-05-28_13-47-10.338854,"52.08,81.39"
2024-05-28_13-47-10.372604,"90.27,80.24"
2024-05-28_13-47-10.404388,"65.04,66.25"
2024-05-28_13-47-10.437131,"84.93,60.23"
2024-05-28_13-47-10.465844,"89.66,55.04"
2024-05-28_13-47-10.498582,"64.75,51.35"
2024-05-28_13-47-10.531446,"53.17,72.49"
2024-05-28_13-47-10.564173,"56.64,64.73"
2024-05-28_13-47-10.596943,"54.86,70.22"
2024-05-28_13-47-10.629712,"75.51,67.43"
2024-05-28_13-47-10.662722,"54.12,78.97"
2024-05-28_13-47-10.691407,"69.06,81.73"
2024-05-28_13-47-10.724223,"85.19,66.17"
2024-05-28_13-47-10.756677,"76.06,58.34"
2024-05-28_13-47-10.789401,"68.79,77.40"
2024-05-28_13-47-10.822198,"53.05,69.44"
2024-05-28_13-47-10.854945,"73.22,64.01"
2024-05-28_13-47-10.887719,"57.84,64.72"
2024-05-28_13-47-10.920378,"46.56,69.18"
2024-05-28_13-47-10.949411,"63.83,76.39"
2024-05-28_13-47-10.981889,"74.26,68.35"
2024-05-28_13-47-11.014715,"50.41,73.86"
2024-05-28_13-47-11.047440,"80.87,74.10"
2024-05-28_13-47-11.080189,"73.87,81.01"
2024-05-28_13-47-11.112885,"79.49,76.56"
2024-05-28_13-47-11.145672,"96.67,44.41"
2024-05-28_13-47-11.174376,"73.36,50.36"
2024-05-28_13-47-11.207154,"67.31,65.88"
2024-05-28_13-47-11.240002,"55.07,75.24"
2024-05-28_13-47-11.274046,"51.87,71.42"
2024-05-28_13-47-11.305465,"72.26,66.10"
2024-05-28_13-47-11.338188,"61.02,72.42"
2024-05-28_13-47-11.370846,"51.48,81.61"
2024-05-28_13-47-11.399793,"87.75,86.39"
2024-05-28_13-47-11.457714,"76.41,76.45"
2024-05-28_13-47-11.494146,"84.87,47.38"
2024-05-28_13-47-11.504109,"85.94,33.76"
2024-05-28_13-47-11.531230,"72.99,65.54"
2024-05-28_13-47-11.563458,"51.17,63.49"
2024-05-28_13-47-11.596208,"51.12,70.30"
2024-05-28_13-47-11.624887,"63.50,65.96"
2024-05-28_13-47-11.657686,"58.03,72.29"
2024-05-28_13-47-11.690484,"54.64,79.45"
2024-05-28_13-47-11.723605,"82.60,73.54"
2024-05-28_13-47-11.756207,"90.60,78.19"
2024-05-28_13-47-11.788773,"69.32,67.09"
2024-05-28_13-47-11.822242,"74.54,77.80"
2024-05-28_13-47-11.850209,"74.96,61.21"
2024-05-28_13-47-11.882950,"68.47,46.62"
2024-05-28_13-47-11.915755,"51.41,70.78"
2024-05-28_13-47-11.948493,"59.47,65.67"
2024-05-28_13-47-11.981220,"57.98,76.41"
2024-05-28_13-47-12.013985,"62.34,72.92"
2024-05-28_13-47-12.046792,"53.65,69.48"
2024-05-28_13-47-12.075411,"80.06,79.58"
2024-05-28_13-47-12.108232,"78.94,72.91"
2024-05-28_13-47-12.141015,"76.66,76.59"
2024-05-28_13-47-12.173784,"90.96,41.80"
2024-05-28_13-47-12.206613,"69.50,63.95"
2024-05-28_13-47-12.239265,"49.97,56.09"
2024-05-28_13-47-12.271936,"58.29,74.83"
2024-05-28_13-47-12.300749,"59.87,67.31"
2024-05-28_13-47-12.333507,"53.54,71.35"
2024-05-28_13-47-12.368682,"68.09,70.35"
2024-05-28_13-47-12.399140,"51.43,81.41"
2024-05-28_13-47-12.431775,"91.33,76.11"
2024-05-28_13-47-12.464550,"64.71,66.56"
2024-05-28_13-47-12.497209,"84.94,60.25"
2024-05-28_13-47-12.525974,"87.34,50.76"
2024-05-28_13-47-12.560003,"75.44,58.94"
2024-05-28_13-47-12.591676,"51.96,73.03"
2024-05-28_13-47-12.624288,"56.44,64.78"
2024-05-28_13-47-12.657070,"54.49,71.71"
2024-05-28_13-47-12.689863,"72.76,67.71"
2024-05-28_13-47-12.722599,"53.08,79.54"
2024-05-28_13-47-12.751319,"69.34,77.44"
2024-05-28_13-47-12.784069,"81.49,71.58"
2024-05-28_13-47-12.816818,"66.12,57.74"
2024-05-28_13-47-12.849614,"78.58,69.23"
2024-05-28_13-47-12.882315,"62.21,61.61"
2024-05-28_13-47-12.915072,"70.24,59.06"
2024-05-28_13-47-12.947795,"60.13,64.73"
2024-05-28_13-47-12.976615,"46.32,70.10"
2024-05-28_13-47-13.009317,"64.73,76.89"
2024-05-28_13-47-13.042098,"68.58,68.91"
2024-05-28_13-47-13.074816,"51.67,74.14"
2024-05-28_13-47-13.107622,"87.59,76.36"
2024-05-28_13-47-13.140416,"72.58,77.95"
2024-05-28_13-47-13.173518,"84.74,41.74"
2024-05-28_13-47-13.201835,"51.44,71.88"
2024-05-28_13-47-13.234652,"67.54,73.94"
2024-05-28_13-47-13.267303,"57.54,64.68"
2024-05-28_13-47-13.300119,"60.54,75.90"
2024-05-28_13-47-13.332905,"56.34,72.86"
2024-05-28_13-47-13.365681,"71.97,67.86"
2024-05-28_13-47-13.398316,"88.50,77.72"
2024-05-28_13-47-13.427058,"79.25,84.99"
2024-05-28_13-47-13.459867,"74.98,83.33"
2024-05-28_13-47-13.492631,"78.20,43.62"
2024-05-28_13-47-13.530854,"88.71,46.03"
2024-05-28_13-47-13.558613,"70.39,54.13"
2024-05-28_13-47-13.590944,"63.59,62.93"
2024-05-28_13-47-13.624191,"54.91,65.79"
2024-05-28_13-47-13.656306,"53.11,71.00"
2024-05-28_13-47-13.685166,"63.45,66.78"
2024-05-28_13-47-13.717893,"61.69,74.20"
2024-05-28_13-47-13.750686,"68.38,81.34"
2024-05-28_13-47-13.783402,"84.39,72.60"
2024-05-28_13-47-13.816222,"64.52,63.63"
2024-05-28_13-47-13.848862,"93.55,48.67"
2024-05-28_13-47-13.881611,"52.52,68.29"
2024-05-28_13-47-13.910391,"66.41,71.00"
2024-05-28_13-47-13.943196,"51.57,63.83"
2024-05-28_13-47-13.976290,"55.88,70.57"
2024-05-28_13-47-14.008711,"65.31,68.72"
2024-05-28_13-47-14.041459,"70.92,79.07"
2024-05-28_13-47-14.074145,"70.30,77.23"
2024-05-28_13-47-14.106915,"67.40,83.96"
2024-05-28_13-47-14.135681,"87.43,80.03"
2024-05-28_13-47-14.168479,"77.19,51.25"
2024-05-28_13-47-14.201235,"87.46,41.51"
2024-05-28_13-47-14.233998,"67.24,68.21"
2024-05-28_13-47-14.266723,"64.24,46.28"
2024-05-28_13-47-14.299461,"42.99,70.39"
2024-05-28_13-47-14.332212,"59.19,75.93"
2024-05-28_13-47-14.361131,"59.90,67.48"
2024-05-28_13-47-14.393794,"68.07,72.28"
2024-05-28_13-47-14.426448,"62.60,71.16"
2024-05-28_13-47-14.459278,"79.12,81.79"
2024-05-28_13-47-14.492194,"81.37,77.08"
2024-05-28_13-47-14.524688,"71.91,46.52"
2024-05-28_13-47-14.557380,"88.47,39.54"
2024-05-28_13-47-14.586278,"67.79,45.06"
2024-05-28_13-47-14.618963,"67.99,76.84"
2024-05-28_13-47-14.651765,"52.45,72.21"
2024-05-28_13-47-14.684510,"57.33,64.90"
2024-05-28_13-47-14.717265,"55.90,72.15"
2024-05-28_13-47-14.749976,"81.09,68.34"
2024-05-28_13-47-14.782661,"48.20,78.89"
2024-05-28_13-47-14.811842,"102.20,80.17"
2024-05-28_13-47-14.844244,"71.10,61.98"
2024-05-28_13-47-14.877097,"82.16,58.45"
2024-05-28_13-47-14.909812,"97.82,46.85"
2024-05-28_13-47-14.942808,"65.59,59.54"
2024-05-28_13-47-14.975233,"70.14,59.50"
2024-05-28_13-47-15.007907,"58.93,64.94"
2024-05-28_13-47-15.036717,"47.92,69.71"
2024-05-28_13-47-15.069506,"63.58,76.95"
2024-05-28_13-47-15.102302,"63.46,69.53"
2024-05-28_13-47-15.135072,"52.21,75.13"
2024-05-28_13-47-15.167843,"88.17,72.51"
2024-05-28_13-47-15.200603,"71.96,77.95"
2024-05-28_13-47-15.233263,"83.15,41.52"
2024-05-28_13-47-15.262048,"67.85,62.18"
2024-05-28_13-47-15.294841,"68.43,57.69"
2024-05-28_13-47-15.327571,"60.85,65.33"
2024-05-28_13-47-15.360392,"59.35,76.66"
2024-05-28_13-47-15.393079,"55.62,73.45"
2024-05-28_13-47-15.426100,"68.90,69.33"
2024-05-28_13-47-15.458520,"61.14,73.91"
2024-05-28_13-47-15.487291,"68.18,73.13"
2024-05-28_13-47-15.520082,"76.21,82.46"
2024-05-28_13-47-15.552845,"79.93,62.07"
2024-05-28_13-47-15.585597,"98.65,46.34"
2024-05-28_13-47-15.618358,"72.02,55.35"
2024-05-28_13-47-15.651082,"68.24,62.31"
2024-05-28_13-47-15.684971,"53.73,65.41"
2024-05-28_13-47-15.712606,"53.39,70.32"
2024-05-28_13-47-15.745353,"65.83,67.29"
2024-05-28_13-47-15.778223,"65.36,71.06"
2024-05-28_13-47-15.810878,"72.58,71.65"
2024-05-28_13-47-15.843624,"75.01,65.40"
2024-05-28_13-47-15.876429,"71.93,41.37"
2024-05-28_13-47-15.909058,"96.26,47.90"
2024-05-28_13-47-15.937857,"52.00,39.01"
2024-05-28_13-47-15.970623,"74.90,67.20"
2024-05-28_13-47-16.003416,"50.27,63.49"
2024-05-28_13-47-16.037147,"54.66,70.67"
2024-05-28_13-47-16.068971,"61.06,66.69"
2024-05-28_13-47-16.101654,"67.34,76.67"
2024-05-28_13-47-16.134270,"55.43,73.84"
2024-05-28_13-47-16.163088,"53.74,74.86"
2024-05-28_13-47-16.195908,"78.21,74.70"
2024-05-28_13-47-16.228651,"78.55,68.01"
2024-05-28_13-47-16.261431,"91.32,61.69"
2024-05-28_13-47-16.294214,"79.04,58.65"
2024-05-28_13-47-16.326890,"68.47,47.32"
2024-05-28_13-47-16.359607,"44.49,69.70"
2024-05-28_13-47-16.388345,"59.20,76.09"
2024-05-28_13-47-16.421170,"57.36,66.92"
2024-05-28_13-47-16.453928,"65.60,72.03"
2024-05-28_13-47-16.486695,"58.94,71.37"
2024-05-28_13-47-16.519430,"78.47,82.69"
2024-05-28_13-47-16.552206,"79.07,76.73"
2024-05-28_13-47-16.584863,"70.26,46.64"
2024-05-28_13-47-16.613629,"85.17,38.50"
2024-05-28_13-47-16.646499,"79.78,45.70"
2024-05-28_13-47-16.679125,"66.21,52.76"
2024-05-28_13-47-16.711964,"50.99,72.05"
2024-05-28_13-47-16.744705,"57.62,65.25"
2024-05-28_13-47-16.777516,"55.26,72.43"
2024-05-28_13-47-16.810142,"87.97,69.18"
2024-05-28_13-47-16.842810,"74.74,83.73"
2024-05-28_13-47-16.871672,"89.03,80.83"
2024-05-28_13-47-16.904469,"67.03,71.31"
2024-05-28_13-47-16.937226,"83.79,58.07"
2024-05-28_13-47-16.969997,"89.68,46.11"
2024-05-28_13-47-17.002782,"59.66,52.78"
2024-05-28_13-47-17.035458,"64.14,74.90"
2024-05-28_13-47-17.068126,"60.12,65.23"
2024-05-28_13-47-17.097020,"48.21,70.46"
2024-05-28_13-47-17.129951,"63.06,76.68"
2024-05-28_13-47-17.162721,"59.98,69.70"
2024-05-28_13-47-17.195559,"52.27,75.72"
2024-05-28_13-47-17.228122,"86.73,77.77"
2024-05-28_13-47-17.260808,"74.06,77.67"
2024-05-28_13-47-17.293399,"84.26,41.20"
2024-05-28_13-47-17.322219,"80.84,43.06"
2024-05-28_13-47-17.354958,"84.65,57.41"
2024-05-28_13-47-17.388050,"53.55,64.72"
2024-05-28_13-47-17.420593,"57.91,75.53"
2024-05-28_13-47-17.453367,"54.07,70.85"
2024-05-28_13-47-17.486019,"68.10,68.26"
2024-05-28_13-47-17.518687,"58.02,73.84"
2024-05-28_13-47-17.547483,"68.90,72.95"
2024-05-28_13-47-17.580281,"77.00,79.68"
2024-05-28_13-47-17.612990,"79.99,61.71"
2024-05-28_13-47-17.645766,"96.53,46.64"
2024-05-28_13-47-17.678553,"70.04,56.30"
2024-05-28_13-47-17.711247,"72.93,62.32"
2024-05-28_13-47-17.745217,"53.19,65.46"
2024-05-28_13-47-17.773599,"53.64,70.97"
2024-05-28_13-47-17.809192,"64.15,67.42"
2024-05-28_13-47-17.838423,"78.41,74.89"
2024-05-28_13-47-17.871122,"52.11,80.47"
2024-05-28_13-47-17.904944,"83.51,71.42"
2024-05-28_13-47-17.938861,"72.49,75.92"
2024-05-28_13-47-17.969245,"84.53,66.78"
2024-05-28_13-47-17.998040,"80.83,39.84"
2024-05-28_13-47-18.030856,"86.48,59.77"
2024-05-28_13-47-18.063746,"48.03,63.63"
2024-05-28_13-47-18.096373,"52.97,70.21"
2024-05-28_13-47-18.129092,"63.39,66.01"
2024-05-28_13-47-18.161793,"64.95,76.60"
2024-05-28_13-47-18.194543,"55.27,73.59"
2024-05-28_13-47-18.223341,"53.82,76.87"
2024-05-28_13-47-18.256044,"91.88,70.65"
2024-05-28_13-47-18.288789,"79.29,68.44"
2024-05-28_13-47-18.321613,"90.02,61.90"
2024-05-28_13-47-18.354339,"66.98,64.03"
2024-05-28_13-47-18.387064,"64.06,46.21"
2024-05-28_13-47-18.419822,"45.28,70.76"
2024-05-28_13-47-18.448661,"58.80,74.60"
2024-05-28_13-47-18.481395,"58.50,66.96"
2024-05-28_13-47-18.514117,"67.34,71.84"
2024-05-28_13-47-18.546851,"60.41,71.48"
2024-05-28_13-47-18.579766,"65.36,81.54"
2024-05-28_13-47-18.612304,"81.66,78.31"
2024-05-28_13-47-18.645077,"74.24,46.43"
2024-05-28_13-47-18.673852,"86.58,38.56"
2024-05-28_13-47-18.706646,"67.35,45.60"
2024-05-28_13-47-18.739558,"68.72,72.83"
2024-05-28_13-47-18.772261,"51.24,71.14"
2024-05-28_13-47-18.804996,"57.04,65.34"
2024-05-28_13-47-18.837647,"54.32,72.19"
2024-05-28_13-47-18.870419,"82.74,71.01"
2024-05-28_13-47-18.899055,"59.49,69.33"
2024-05-28_13-47-18.931858,"83.11,77.90"
2024-05-28_13-47-18.964676,"66.04,71.74"
2024-05-28_13-47-18.997420,"80.40,73.62"
2024-05-28_13-47-19.030174,"96.70,46.60"
2024-05-28_13-47-19.062897,"62.86,58.44"
2024-05-28_13-47-19.095584,"57.17,59.66"
2024-05-28_13-47-19.124349,"57.80,64.80"
2024-05-28_13-47-19.157113,"47.08,70.12"
2024-05-28_13-47-19.189955,"62.58,76.76"
2024-05-28_13-47-19.222666,"65.03,69.47"
2024-05-28_13-47-19.255413,"51.27,74.90"
2024-05-28_13-47-19.288206,"87.53,75.30"
2024-05-28_13-47-19.320908,"73.98,77.92"
2024-05-28_13-47-19.349649,"83.75,40.81"
2024-05-28_13-47-19.382387,"80.26,43.05"
2024-05-28_13-47-19.415159,"85.07,56.75"
2024-05-28_13-47-19.447929,"54.15,64.87"
2024-05-28_13-47-19.480696,"56.49,75.60"
2024-05-28_13-47-19.513473,"53.17,71.01"
2024-05-28_13-47-19.546118,"71.04,68.10"
2024-05-28_13-47-19.575009,"62.45,73.37"
2024-05-28_13-47-19.607710,"69.29,77.29"
2024-05-28_13-47-19.640413,"79.83,76.44"
2024-05-28_13-47-19.673166,"76.99,62.22"
2024-05-28_13-47-19.705946,"89.88,47.58"
2024-05-28_13-47-19.738797,"74.82,33.72"
2024-05-28_13-47-19.771420,"65.99,73.92"
2024-05-28_13-47-19.800195,"51.98,64.35"
2024-05-28_13-47-19.832928,"53.15,70.80"
2024-05-28_13-47-19.865696,"62.21,67.20"
2024-05-28_13-47-19.898486,"85.61,75.96"
2024-05-28_13-47-19.931240,"51.89,80.80"
2024-05-28_13-47-19.963988,"81.23,74.69"
2024-05-28_13-47-19.996715,"74.99,76.84"
2024-05-28_13-47-20.025446,"79.57,67.01"
2024-05-28_13-47-20.058284,"89.29,40.70"
2024-05-28_13-47-20.090951,"75.92,64.41"
2024-05-28_13-47-20.123697,"54.65,45.70"
2024-05-28_13-47-20.156566,"51.91,70.95"
