timestamp,EMG
2024-05-28_16-50-21.709670,0.00
2024-05-28_16-50-21.742474,0.00
2024-05-28_16-50-21.775916,4.50
2024-05-28_16-50-21.803885,0.00
2024-05-28_16-50-21.836673,0.00
2024-05-28_16-50-21.869382,0.00
2024-05-28_16-50-21.902255,0.00
2024-05-28_16-50-21.934964,0.00
2024-05-28_16-50-21.967754,0.00
2024-05-28_16-50-22.000531,0.00
2024-05-28_16-50-22.033304,0.00
2024-05-28_16-50-22.061897,0.00
2024-05-28_16-50-22.094686,0.00
2024-05-28_16-50-22.127671,0.00
2024-05-28_16-50-22.160218,0.00
2024-05-28_16-50-22.193916,0.00
2024-05-28_16-50-22.225814,0.00
2024-05-28_16-50-22.258505,0.00
2024-05-28_16-50-22.287286,8.00
2024-05-28_16-50-22.319956,0.00
2024-05-28_16-50-22.352829,0.00
2024-05-28_16-50-22.385508,0.00
2024-05-28_16-50-22.418262,0.00
2024-05-28_16-50-22.451227,0.00
2024-05-28_16-50-22.483794,0.00
2024-05-28_16-50-22.512477,0.00
2024-05-28_16-50-22.545227,0.00
2024-05-28_16-50-22.577974,0.00
2024-05-28_16-50-22.610820,0.00
2024-05-28_16-50-22.643552,0.00
2024-05-28_16-50-22.679451,0.00
2024-05-28_16-50-22.711773,0.00
2024-05-28_16-50-22.737737,0.00
2024-05-28_16-50-22.770513,0.00
2024-05-28_16-50-22.803311,0.00
2024-05-28_16-50-22.836016,0.00
2024-05-28_16-50-22.868824,0.00
2024-05-28_16-50-22.901658,0.00
2024-05-28_16-50-22.934375,0.00
2024-05-28_16-50-22.962999,0.00
2024-05-28_16-50-22.995835,0.00
2024-05-28_16-50-23.028525,0.00
2024-05-28_16-50-23.061322,0.00
2024-05-28_16-50-23.094119,0.00
2024-05-28_16-50-23.126823,0.00
2024-05-28_16-50-23.159632,0.00
2024-05-28_16-50-23.192366,0.00
2024-05-28_16-50-23.221076,0.00
2024-05-28_16-50-23.253882,0.00
2024-05-28_16-50-23.286648,0.00
2024-05-28_16-50-23.319404,0.00
2024-05-28_16-50-23.352156,0.00
2024-05-28_16-50-23.384906,0.00
2024-05-28_16-50-23.417584,0.00
2024-05-28_16-50-23.446502,0.00
2024-05-28_16-50-23.479085,0.00
2024-05-28_16-50-23.511915,0.00
2024-05-28_16-50-23.544660,0.00
2024-05-28_16-50-23.577385,0.00
2024-05-28_16-50-23.610217,0.00
2024-05-28_16-50-23.642971,0.00
2024-05-28_16-50-23.671624,0.00
2024-05-28_16-50-23.704435,0.00
2024-05-28_16-50-23.737401,0.00
2024-05-28_16-50-23.770042,0.00
2024-05-28_16-50-23.802709,0.00
2024-05-28_16-50-23.835488,0.00
2024-05-28_16-50-23.868329,0.00
2024-05-28_16-50-23.897111,0.00
2024-05-28_16-50-23.929649,6.73
2024-05-28_16-50-23.962450,4.50
2024-05-28_16-50-23.995198,9.15
2024-05-28_16-50-24.027997,10.98
2024-05-28_16-50-24.060769,10.68
2024-05-28_16-50-24.093817,10.25
2024-05-28_16-50-24.126267,11.39
2024-05-28_16-50-24.154993,9.11
2024-05-28_16-50-24.187794,8.84
2024-05-28_16-50-24.220492,6.54
2024-05-28_16-50-24.253382,0.00
2024-05-28_16-50-24.286073,0.00
2024-05-28_16-50-24.318772,0.00
2024-05-28_16-50-24.351567,0.00
2024-05-28_16-50-24.380263,0.00
2024-05-28_16-50-24.413040,0.00
2024-05-28_16-50-24.445790,0.00
2024-05-28_16-50-24.478517,0.00
2024-05-28_16-50-24.511378,4.50
2024-05-28_16-50-24.545244,0.00
2024-05-28_16-50-24.576798,0.00
2024-05-28_16-50-24.605536,0.00
2024-05-28_16-50-24.638338,0.00
2024-05-28_16-50-24.671047,0.00
2024-05-28_16-50-24.703826,0.00
2024-05-28_16-50-24.736601,4.50
2024-05-28_16-50-24.769374,6.54
2024-05-28_16-50-24.802136,7.60
2024-05-28_16-50-24.832558,13.70
2024-05-28_16-50-24.863700,6.91
2024-05-28_16-50-24.896373,15.01
2024-05-28_16-50-24.929931,13.20
2024-05-28_16-50-24.962823,6.25
2024-05-28_16-50-24.994642,12.66
2024-05-28_16-50-25.027383,19.76
2024-05-28_16-50-25.056124,12.18
2024-05-28_16-50-25.088848,9.76
2024-05-28_16-50-25.121622,13.52
2024-05-28_16-50-25.154963,11.80
2024-05-28_16-50-25.187140,9.52
2024-05-28_16-50-25.219901,8.00
2024-05-28_16-50-25.252810,14.83
2024-05-28_16-50-25.285391,4.75
2024-05-28_16-50-25.314121,16.02
2024-05-28_16-50-25.346904,11.32
2024-05-28_16-50-25.379714,8.39
2024-05-28_16-50-25.412520,9.11
2024-05-28_16-50-25.445207,10.53
2024-05-28_16-50-25.477937,8.95
2024-05-28_16-50-25.510708,8.81
2024-05-28_16-50-25.539438,8.68
2024-05-28_16-50-25.572265,6.73
2024-05-28_16-50-25.604952,7.07
2024-05-28_16-50-25.637716,0.00
2024-05-28_16-50-25.670471,0.00
2024-05-28_16-50-25.703268,0.00
2024-05-28_16-50-25.735986,0.00
2024-05-28_16-50-25.764674,0.00
2024-05-28_16-50-25.797439,0.00
2024-05-28_16-50-25.830174,6.00
2024-05-28_16-50-25.865885,8.31
2024-05-28_16-50-25.895825,12.36
2024-05-28_16-50-25.928528,11.21
2024-05-28_16-50-25.961281,12.78
2024-05-28_16-50-25.989991,13.92
2024-05-28_16-50-26.022720,11.93
2024-05-28_16-50-26.055625,10.80
2024-05-28_16-50-26.088345,11.10
2024-05-28_16-50-26.121009,9.57
2024-05-28_16-50-26.153796,9.02
2024-05-28_16-50-26.186593,12.30
2024-05-28_16-50-26.219299,10.50
2024-05-28_16-50-26.247993,9.42
2024-05-28_16-50-26.280730,8.00
2024-05-28_16-50-26.313572,8.53
2024-05-28_16-50-26.346342,17.23
2024-05-28_16-50-26.379080,9.62
2024-05-28_16-50-26.411847,16.76
2024-05-28_16-50-26.444575,7.11
2024-05-28_16-50-26.473313,17.37
2024-05-28_16-50-26.506077,5.75
2024-05-28_16-50-26.538827,0.00
2024-05-28_16-50-26.571626,0.00
2024-05-28_16-50-26.604345,0.00
2024-05-28_16-50-26.637125,0.00
2024-05-28_16-50-26.669813,9.49
2024-05-28_16-50-26.698561,10.83
2024-05-28_16-50-26.731422,11.78
2024-05-28_16-50-26.764222,6.73
2024-05-28_16-50-26.796927,0.00
2024-05-28_16-50-26.829616,0.00
2024-05-28_16-50-26.862448,0.00
2024-05-28_16-50-26.895186,4.50
2024-05-28_16-50-26.927843,46.21
2024-05-28_16-50-26.956695,63.05
2024-05-28_16-50-26.989450,70.79
2024-05-28_16-50-27.022139,63.25
2024-05-28_16-50-27.054936,72.24
2024-05-28_16-50-27.087712,73.37
2024-05-28_16-50-27.120426,76.57
2024-05-28_16-50-27.153140,92.70
2024-05-28_16-50-27.181961,76.10
2024-05-28_16-50-27.214660,88.30
2024-05-28_16-50-27.247635,79.93
2024-05-28_16-50-27.285398,111.75
2024-05-28_16-50-27.312989,72.53
2024-05-28_16-50-27.345768,67.24
2024-05-28_16-50-27.378481,50.24
2024-05-28_16-50-27.407204,63.94
2024-05-28_16-50-27.440673,39.09
2024-05-28_16-50-27.472722,31.51
2024-05-28_16-50-27.505486,26.55
2024-05-28_16-50-27.538260,27.81
2024-05-28_16-50-27.571005,26.19
2024-05-28_16-50-27.603835,26.49
2024-05-28_16-50-27.632548,26.47
2024-05-28_16-50-27.665226,28.28
2024-05-28_16-50-27.698006,25.06
2024-05-28_16-50-27.730720,23.58
2024-05-28_16-50-27.763619,24.00
2024-05-28_16-50-27.796297,23.34
2024-05-28_16-50-27.829011,26.20
2024-05-28_16-50-27.861852,23.50
2024-05-28_16-50-27.890512,24.81
2024-05-28_16-50-27.923254,24.23
2024-05-28_16-50-27.956071,24.71
2024-05-28_16-50-27.988819,27.65
2024-05-28_16-50-28.030063,24.04
2024-05-28_16-50-28.054709,22.58
2024-05-28_16-50-28.087067,22.19
2024-05-28_16-50-28.115870,23.07
2024-05-28_16-50-28.148522,20.99
2024-05-28_16-50-28.181250,22.67
2024-05-28_16-50-28.214062,21.55
2024-05-28_16-50-28.246951,23.20
2024-05-28_16-50-28.279601,24.26
2024-05-28_16-50-28.312372,24.02
2024-05-28_16-50-28.341074,24.23
2024-05-28_16-50-28.373805,23.34
2024-05-28_16-50-28.406650,24.19
2024-05-28_16-50-28.439665,21.72
2024-05-28_16-50-28.472241,21.77
2024-05-28_16-50-28.504936,21.06
2024-05-28_16-50-28.537677,20.94
2024-05-28_16-50-28.570398,23.87
2024-05-28_16-50-28.599377,21.64
2024-05-28_16-50-28.632085,23.55
2024-05-28_16-50-28.664678,22.74
2024-05-28_16-50-28.697548,24.15
2024-05-28_16-50-28.730257,23.66
2024-05-28_16-50-28.762955,21.41
2024-05-28_16-50-28.795604,20.19
2024-05-28_16-50-28.824448,20.55
2024-05-28_16-50-28.858126,23.11
2024-05-28_16-50-28.889974,20.51
2024-05-28_16-50-28.922672,22.23
2024-05-28_16-50-28.955536,21.73
2024-05-28_16-50-28.988341,23.29
2024-05-28_16-50-29.021088,22.31
2024-05-28_16-50-29.050002,22.04
2024-05-28_16-50-29.082713,20.70
2024-05-28_16-50-29.115418,19.91
2024-05-28_16-50-29.148146,22.03
2024-05-28_16-50-29.181883,20.02
2024-05-28_16-50-29.213616,21.04
2024-05-28_16-50-29.246269,21.36
2024-05-28_16-50-29.279028,20.66
2024-05-28_16-50-29.307834,23.70
2024-05-28_16-50-29.340526,21.20
2024-05-28_16-50-29.373250,22.45
2024-05-28_16-50-29.406005,20.82
2024-05-28_16-50-29.438760,20.31
2024-05-28_16-50-29.482308,19.73
2024-05-28_16-50-29.504353,20.33
2024-05-28_16-50-29.533035,19.11
2024-05-28_16-50-29.565762,20.54
2024-05-28_16-50-29.598533,21.68
2024-05-28_16-50-29.632088,21.00
2024-05-28_16-50-29.668243,20.65
2024-05-28_16-50-29.696820,21.66
2024-05-28_16-50-29.729513,22.89
2024-05-28_16-50-29.758252,19.33
2024-05-28_16-50-29.792996,18.85
2024-05-28_16-50-29.823788,18.72
2024-05-28_16-50-29.856566,18.90
2024-05-28_16-50-29.889317,21.24
2024-05-28_16-50-29.922085,19.49
2024-05-28_16-50-29.954917,21.60
2024-05-28_16-50-29.987560,20.67
2024-05-28_16-50-30.016267,21.28
2024-05-28_16-50-30.049171,22.79
2024-05-28_16-50-30.081989,19.01
2024-05-28_16-50-30.114618,19.13
2024-05-28_16-50-30.147370,18.38
2024-05-28_16-50-30.180087,20.82
2024-05-28_16-50-30.212819,18.62
2024-05-28_16-50-30.241547,20.39
2024-05-28_16-50-30.274976,19.52
2024-05-28_16-50-30.307147,21.95
2024-05-28_16-50-30.339940,20.83
2024-05-28_16-50-30.372640,21.34
2024-05-28_16-50-30.405414,20.19
2024-05-28_16-50-30.438165,17.51
2024-05-28_16-50-30.466850,20.29
2024-05-28_16-50-30.499672,18.18
2024-05-28_16-50-30.532549,19.46
2024-05-28_16-50-30.565149,19.63
2024-05-28_16-50-30.598087,18.22
2024-05-28_16-50-30.630752,22.30
2024-05-28_16-50-30.663526,19.02
2024-05-28_16-50-30.696152,21.17
2024-05-28_16-50-30.724915,20.75
2024-05-28_16-50-30.757666,18.22
2024-05-28_16-50-30.790445,17.33
2024-05-28_16-50-30.823210,18.63
2024-05-28_16-50-30.855962,17.83
2024-05-28_16-50-30.888741,19.62
2024-05-28_16-50-30.921425,19.90
2024-05-28_16-50-30.950198,19.16
2024-05-28_16-50-30.982913,19.10
2024-05-28_16-50-31.015725,20.57
2024-05-28_16-50-31.048500,20.02
2024-05-28_16-50-31.081340,18.59
2024-05-28_16-50-31.114048,14.48
2024-05-28_16-50-31.146726,13.01
2024-05-28_16-50-31.175677,9.28
2024-05-28_16-50-31.208267,23.01
2024-05-28_16-50-31.240999,68.46
2024-05-28_16-50-31.273754,85.50
2024-05-28_16-50-31.306551,62.94
2024-05-28_16-50-31.339317,80.27
2024-05-28_16-50-31.372066,71.59
2024-05-28_16-50-31.400740,82.83
2024-05-28_16-50-31.433511,49.74
2024-05-28_16-50-31.466263,71.92
2024-05-28_16-50-31.499023,71.91
2024-05-28_16-50-31.533378,67.14
2024-05-28_16-50-31.564651,69.13
2024-05-28_16-50-31.597344,72.37
2024-05-28_16-50-31.630146,72.04
2024-05-28_16-50-31.658818,72.41
2024-05-28_16-50-31.691598,79.36
2024-05-28_16-50-31.724300,74.02
2024-05-28_16-50-31.758040,63.47
2024-05-28_16-50-31.789859,84.02
2024-05-28_16-50-31.822662,48.81
2024-05-28_16-50-31.855440,46.15
2024-05-28_16-50-31.884052,35.33
2024-05-28_16-50-31.916982,29.90
2024-05-28_16-50-31.949651,22.16
2024-05-28_16-50-31.982313,15.94
2024-05-28_16-50-32.015163,13.83
2024-05-28_16-50-32.047918,52.18
2024-05-28_16-50-32.080591,64.62
2024-05-28_16-50-32.109383,70.57
2024-05-28_16-50-32.142103,86.74
2024-05-28_16-50-32.174888,73.24
2024-05-28_16-50-32.207681,72.27
2024-05-28_16-50-32.240416,72.23
2024-05-28_16-50-32.274845,72.24
2024-05-28_16-50-32.305978,78.62
2024-05-28_16-50-32.338648,52.58
2024-05-28_16-50-32.367424,53.19
2024-05-28_16-50-32.400173,54.49
2024-05-28_16-50-32.432876,55.06
2024-05-28_16-50-32.465672,58.93
2024-05-28_16-50-32.498467,53.45
2024-05-28_16-50-32.531292,66.05
2024-05-28_16-50-32.563972,43.54
2024-05-28_16-50-32.592669,32.47
2024-05-28_16-50-32.625382,28.30
2024-05-28_16-50-32.658222,25.56
2024-05-28_16-50-32.690959,5.25
2024-05-28_16-50-32.723716,0.00
2024-05-28_16-50-32.756519,0.00
2024-05-28_16-50-32.789224,0.00
2024-05-28_16-50-32.817999,0.00
2024-05-28_16-50-32.850739,0.00
2024-05-28_16-50-32.883457,0.00
2024-05-28_16-50-32.916232,0.00
2024-05-28_16-50-32.949003,0.00
2024-05-28_16-50-32.981938,0.00
2024-05-28_16-50-33.014484,0.00
2024-05-28_16-50-33.043272,0.00
2024-05-28_16-50-33.075966,0.00
2024-05-28_16-50-33.108774,0.00
2024-05-28_16-50-33.141531,0.00
2024-05-28_16-50-33.174261,0.00
2024-05-28_16-50-33.207052,38.81
2024-05-28_16-50-33.239854,59.53
2024-05-28_16-50-33.272465,80.19
2024-05-28_16-50-33.301264,70.98
2024-05-28_16-50-33.334042,71.89
2024-05-28_16-50-33.366854,74.40
2024-05-28_16-50-33.399726,66.59
2024-05-28_16-50-33.432385,81.93
2024-05-28_16-50-33.465155,71.45
2024-05-28_16-50-33.497811,64.96
2024-05-28_16-50-33.526509,77.02
2024-05-28_16-50-33.559369,82.39
2024-05-28_16-50-33.592089,63.61
2024-05-28_16-50-33.625789,58.75
2024-05-28_16-50-33.657613,67.46
2024-05-28_16-50-33.690403,18.30
2024-05-28_16-50-33.723092,23.26
2024-05-28_16-50-33.751946,24.44
2024-05-28_16-50-33.784556,23.45
2024-05-28_16-50-33.817350,27.74
2024-05-28_16-50-33.850185,26.27
2024-05-28_16-50-33.882979,24.05
2024-05-28_16-50-33.916071,24.50
2024-05-28_16-50-33.948461,25.48
2024-05-28_16-50-33.981462,28.43
2024-05-28_16-50-34.009895,25.40
2024-05-28_16-50-34.042673,25.47
2024-05-28_16-50-34.075705,24.92
2024-05-28_16-50-34.108205,27.29
2024-05-28_16-50-34.140966,25.20
2024-05-28_16-50-34.173752,25.00
2024-05-28_16-50-34.210711,24.24
2024-05-28_16-50-34.235846,22.66
2024-05-28_16-50-34.268092,26.63
2024-05-28_16-50-34.300783,23.30
2024-05-28_16-50-34.333550,24.84
2024-05-28_16-50-34.366197,25.44
2024-05-28_16-50-34.398983,26.43
2024-05-28_16-50-34.431718,26.53
2024-05-28_16-50-34.460489,24.26
2024-05-28_16-50-34.493233,25.10
2024-05-28_16-50-34.525945,24.70
2024-05-28_16-50-34.558813,26.38
2024-05-28_16-50-34.591512,24.50
2024-05-28_16-50-34.625164,25.38
2024-05-28_16-50-34.657067,24.54
2024-05-28_16-50-34.685750,25.60
2024-05-28_16-50-34.718486,29.49
2024-05-28_16-50-34.751286,26.82
2024-05-28_16-50-34.783982,22.64
2024-05-28_16-50-34.816795,23.30
2024-05-28_16-50-34.849715,22.75
2024-05-28_16-50-34.882283,19.26
2024-05-28_16-50-34.915007,21.28
2024-05-28_16-50-34.943781,19.97
2024-05-28_16-50-34.976723,23.17
2024-05-28_16-50-35.009296,22.39
2024-05-28_16-50-35.042106,21.48
2024-05-28_16-50-35.075354,21.66
2024-05-28_16-50-35.107630,21.51
2024-05-28_16-50-35.140306,25.48
2024-05-28_16-50-35.169011,22.74
2024-05-28_16-50-35.201851,18.52
2024-05-28_16-50-35.234558,21.38
2024-05-28_16-50-35.267371,18.12
2024-05-28_16-50-35.300164,21.58
2024-05-28_16-50-35.332862,18.67
2024-05-28_16-50-35.365611,20.15
2024-05-28_16-50-35.394357,20.28
2024-05-28_16-50-35.427053,23.14
2024-05-28_16-50-35.459857,21.87
2024-05-28_16-50-35.492639,22.12
2024-05-28_16-50-35.525544,20.64
2024-05-28_16-50-35.558198,19.70
2024-05-28_16-50-35.590951,22.36
2024-05-28_16-50-35.623603,19.01
2024-05-28_16-50-35.652355,19.89
2024-05-28_16-50-35.685130,20.36
2024-05-28_16-50-35.717891,21.91
2024-05-28_16-50-35.750671,22.70
2024-05-28_16-50-35.783417,21.08
2024-05-28_16-50-35.816211,21.11
2024-05-28_16-50-35.848988,20.99
2024-05-28_16-50-35.877633,23.35
2024-05-28_16-50-35.910428,20.27
2024-05-28_16-50-35.943201,19.94
2024-05-28_16-50-35.976288,20.10
2024-05-28_16-50-36.008729,21.72
2024-05-28_16-50-36.041508,21.65
2024-05-28_16-50-36.074219,20.91
2024-05-28_16-50-36.102923,20.81
2024-05-28_16-50-36.135695,21.48
2024-05-28_16-50-36.168452,24.12
2024-05-28_16-50-36.201270,20.80
2024-05-28_16-50-36.234124,19.70
2024-05-28_16-50-36.266831,20.36
2024-05-28_16-50-36.299530,20.91
2024-05-28_16-50-36.332289,22.47
2024-05-28_16-50-36.360969,21.01
2024-05-28_16-50-36.393774,21.01
2024-05-28_16-50-36.426478,20.94
2024-05-28_16-50-36.459271,24.33
2024-05-28_16-50-36.492056,21.01
2024-05-28_16-50-36.525507,22.31
2024-05-28_16-50-36.557547,21.02
2024-05-28_16-50-36.586236,21.39
2024-05-28_16-50-36.619020,20.45
2024-05-28_16-50-36.651864,22.47
2024-05-28_16-50-36.692662,23.07
2024-05-28_16-50-36.717371,22.33
2024-05-28_16-50-36.750196,20.60
2024-05-28_16-50-36.783371,20.05
2024-05-28_16-50-36.811571,20.74
2024-05-28_16-50-36.844302,19.53
2024-05-28_16-50-36.877031,19.08
2024-05-28_16-50-36.909889,20.68
2024-05-28_16-50-36.942606,19.67
2024-05-28_16-50-36.975923,20.53
2024-05-28_16-50-37.008164,19.16
2024-05-28_16-50-37.036807,20.74
2024-05-28_16-50-37.069595,19.54
2024-05-28_16-50-37.102328,18.87
2024-05-28_16-50-37.135100,20.62
2024-05-28_16-50-37.167878,17.82
2024-05-28_16-50-37.200647,18.79
2024-05-28_16-50-37.233382,17.56
2024-05-28_16-50-37.266091,19.61
2024-05-28_16-50-37.294883,19.22
2024-05-28_16-50-37.327573,19.85
2024-05-28_16-50-37.360381,20.29
2024-05-28_16-50-37.393168,19.17
2024-05-28_16-50-37.425868,18.70
2024-05-28_16-50-37.458719,18.21
2024-05-28_16-50-37.491405,18.80
2024-05-28_16-50-37.520095,17.98
2024-05-28_16-50-37.552947,17.31
2024-05-28_16-50-37.585646,18.23
2024-05-28_16-50-37.618435,18.64
2024-05-28_16-50-37.651234,18.89
2024-05-28_16-50-37.683915,20.44
2024-05-28_16-50-37.716695,19.56
2024-05-28_16-50-37.745419,18.58
2024-05-28_16-50-37.778136,21.02
2024-05-28_16-50-37.810983,17.49
2024-05-28_16-50-37.843788,16.33
2024-05-28_16-50-37.876505,17.31
2024-05-28_16-50-37.909355,19.28
2024-05-28_16-50-37.941981,19.47
2024-05-28_16-50-37.974700,18.28
2024-05-28_16-50-38.003477,18.49
2024-05-28_16-50-38.036249,18.63
2024-05-28_16-50-38.069007,21.83
2024-05-28_16-50-38.101791,18.86
2024-05-28_16-50-38.134495,17.18
2024-05-28_16-50-38.167270,17.55
2024-05-28_16-50-38.200180,18.17
2024-05-28_16-50-38.228702,20.30
2024-05-28_16-50-38.261487,18.78
2024-05-28_16-50-38.294299,19.08
2024-05-28_16-50-38.327007,19.56
2024-05-28_16-50-38.359816,21.06
2024-05-28_16-50-38.392555,19.79
2024-05-28_16-50-38.425269,18.88
2024-05-28_16-50-38.454012,17.75
2024-05-28_16-50-38.486764,18.65
2024-05-28_16-50-38.519524,20.31
2024-05-28_16-50-38.552304,18.17
2024-05-28_16-50-38.585089,18.21
2024-05-28_16-50-38.617912,18.57
2024-05-28_16-50-38.650695,20.82
2024-05-28_16-50-38.683350,19.29
2024-05-28_16-50-38.712087,17.80
2024-05-28_16-50-38.744866,18.08
2024-05-28_16-50-38.777665,17.62
2024-05-28_16-50-38.810420,19.35
2024-05-28_16-50-38.843111,17.50
2024-05-28_16-50-38.876053,17.84
2024-05-28_16-50-38.908644,18.27
2024-05-28_16-50-38.937343,19.15
2024-05-28_16-50-38.970104,20.42
2024-05-28_16-50-39.002967,18.87
2024-05-28_16-50-39.035645,18.62
2024-05-28_16-50-39.068398,18.60
2024-05-28_16-50-39.101190,19.88
2024-05-28_16-50-39.133907,17.73
2024-05-28_16-50-39.162603,19.30
2024-05-28_16-50-39.195416,16.79
2024-05-28_16-50-39.228177,20.30
2024-05-28_16-50-39.263089,19.00
2024-05-28_16-50-39.293719,19.80
2024-05-28_16-50-39.326576,18.15
2024-05-28_16-50-39.359270,18.51
2024-05-28_16-50-39.391913,20.96
2024-05-28_16-50-39.420616,15.79
2024-05-28_16-50-39.453487,17.24
2024-05-28_16-50-39.486178,17.55
2024-05-28_16-50-39.519006,18.81
2024-05-28_16-50-39.551797,20.17
2024-05-28_16-50-39.584477,17.77
2024-05-28_16-50-39.617211,18.68
2024-05-28_16-50-39.646027,18.03
2024-05-28_16-50-39.678667,45.69
2024-05-28_16-50-39.711615,83.58
2024-05-28_16-50-39.744243,72.18
2024-05-28_16-50-39.777101,64.49
2024-05-28_16-50-39.809809,71.46
2024-05-28_16-50-39.842536,64.43
2024-05-28_16-50-39.871210,71.28
2024-05-28_16-50-39.903998,82.28
2024-05-28_16-50-39.936769,72.10
2024-05-28_16-50-39.969522,72.41
2024-05-28_16-50-40.002295,72.37
2024-05-28_16-50-40.035072,72.37
2024-05-28_16-50-40.067799,82.03
2024-05-28_16-50-40.100589,72.18
2024-05-28_16-50-40.129306,75.45
2024-05-28_16-50-40.162049,53.03
2024-05-28_16-50-40.194849,82.67
2024-05-28_16-50-40.227551,72.52
2024-05-28_16-50-40.260384,56.74
2024-05-28_16-50-40.293125,81.65
2024-05-28_16-50-40.325880,71.78
2024-05-28_16-50-40.354525,81.90
2024-05-28_16-50-40.387304,72.56
2024-05-28_16-50-40.420077,71.99
2024-05-28_16-50-40.452823,72.89
2024-05-28_16-50-40.485618,71.72
2024-05-28_16-50-40.518391,82.10
2024-05-28_16-50-40.551124,72.29
2024-05-28_16-50-40.579775,71.77
2024-05-28_16-50-40.612588,69.51
2024-05-28_16-50-40.645388,50.84
2024-05-28_16-50-40.678087,74.46
2024-05-28_16-50-40.710891,71.77
2024-05-28_16-50-40.743655,72.28
2024-05-28_16-50-40.776500,59.07
2024-05-28_16-50-40.805125,61.69
2024-05-28_16-50-40.837880,71.24
2024-05-28_16-50-40.870639,66.42
2024-05-28_16-50-40.903423,69.37
2024-05-28_16-50-40.936133,82.48
2024-05-28_16-50-40.968923,81.71
2024-05-28_16-50-41.001716,80.16
2024-05-28_16-50-41.034402,93.94
2024-05-28_16-50-41.063171,68.91
2024-05-28_16-50-41.095953,82.50
2024-05-28_16-50-41.128654,72.19
2024-05-28_16-50-41.161465,75.90
2024-05-28_16-50-41.194251,69.24
2024-05-28_16-50-41.226992,82.44
2024-05-28_16-50-41.259729,72.14
2024-05-28_16-50-41.288402,72.38
2024-05-28_16-50-41.321199,72.39
2024-05-28_16-50-41.353969,72.10
2024-05-28_16-50-41.386737,82.15
2024-05-28_16-50-41.419516,60.55
2024-05-28_16-50-41.452292,87.05
2024-05-28_16-50-41.484993,79.93
2024-05-28_16-50-41.513681,69.21
2024-05-28_16-50-41.546485,71.98
2024-05-28_16-50-41.579965,61.17
2024-05-28_16-50-41.612108,70.05
2024-05-28_16-50-41.644802,73.90
2024-05-28_16-50-41.677708,58.50
2024-05-28_16-50-41.710350,64.98
2024-05-28_16-50-41.743037,82.38
2024-05-28_16-50-41.771753,67.14
2024-05-28_16-50-41.804521,72.36
2024-05-28_16-50-41.837315,75.50
2024-05-28_16-50-41.870094,71.91
2024-05-28_16-50-41.902843,72.99
2024-05-28_16-50-41.935644,88.94
2024-05-28_16-50-41.968384,80.13
2024-05-28_16-50-41.997074,78.27
2024-05-28_16-50-42.029787,86.84
2024-05-28_16-50-42.062582,84.35
2024-05-28_16-50-42.095370,60.53
2024-05-28_16-50-42.128054,76.22
2024-05-28_16-50-42.160952,70.86
2024-05-28_16-50-42.193641,71.90
2024-05-28_16-50-42.222308,71.76
2024-05-28_16-50-42.255091,77.82
2024-05-28_16-50-42.287896,83.75
2024-05-28_16-50-42.320608,88.15
2024-05-28_16-50-42.353389,69.10
2024-05-28_16-50-42.386144,70.50
2024-05-28_16-50-42.418909,81.23
2024-05-28_16-50-42.451676,78.50
2024-05-28_16-50-42.480312,83.96
2024-05-28_16-50-42.513216,79.04
2024-05-28_16-50-42.545885,64.19
2024-05-28_16-50-42.578636,85.50
2024-05-28_16-50-42.611455,85.99
2024-05-28_16-50-42.644195,49.54
2024-05-28_16-50-42.676875,62.58
2024-05-28_16-50-42.705692,65.06
2024-05-28_16-50-42.738414,70.57
2024-05-28_16-50-42.771213,84.47
2024-05-28_16-50-42.803939,91.33
2024-05-28_16-50-42.836656,81.69
2024-05-28_16-50-42.869480,64.75
2024-05-28_16-50-42.902597,68.30
2024-05-28_16-50-42.931011,67.09
2024-05-28_16-50-42.963630,70.13
2024-05-28_16-50-42.996453,72.06
2024-05-28_16-50-43.029203,72.58
2024-05-28_16-50-43.062000,70.90
2024-05-28_16-50-43.094858,94.71
2024-05-28_16-50-43.127489,82.08
2024-05-28_16-50-43.160231,67.17
2024-05-28_16-50-43.188958,68.47
2024-05-28_16-50-43.221726,64.47
2024-05-28_16-50-43.254505,66.82
2024-05-28_16-50-43.287298,73.02
2024-05-28_16-50-43.320033,72.38
2024-05-28_16-50-43.352813,71.78
2024-05-28_16-50-43.385641,81.00
2024-05-28_16-50-43.414237,80.27
2024-05-28_16-50-43.447011,83.58
2024-05-28_16-50-43.479766,65.85
2024-05-28_16-50-43.512570,59.29
2024-05-28_16-50-43.545328,60.57
2024-05-28_16-50-43.578153,70.53
2024-05-28_16-50-43.610809,72.70
2024-05-28_16-50-43.639538,72.10
2024-05-28_16-50-43.672319,80.79
2024-05-28_16-50-43.705072,78.83
2024-05-28_16-50-43.737819,85.86
2024-05-28_16-50-43.770615,64.89
2024-05-28_16-50-43.803376,73.56
2024-05-28_16-50-43.836117,63.73
2024-05-28_16-50-43.868796,65.66
2024-05-28_16-50-43.898034,72.05
2024-05-28_16-50-43.930305,71.89
2024-05-28_16-50-43.963119,81.14
2024-05-28_16-50-43.995907,88.10
2024-05-28_16-50-44.028628,81.20
2024-05-28_16-50-44.061429,74.22
2024-05-28_16-50-44.225100,66.87
2024-05-28_16-50-44.226082,56.86
2024-05-28_16-50-44.226198,66.63
2024-05-28_16-50-44.226282,72.71
2024-05-28_16-50-44.226354,71.97
2024-05-28_16-50-44.261696,82.01
2024-05-28_16-50-44.288599,70.62
2024-05-28_16-50-44.319442,80.91
2024-05-28_16-50-44.348214,85.10
2024-05-28_16-50-44.380898,64.62
2024-05-28_16-50-44.413629,60.39
2024-05-28_16-50-44.446403,60.99
2024-05-28_16-50-44.479214,71.52
2024-05-28_16-50-44.511973,71.97
2024-05-28_16-50-44.544738,81.87
2024-05-28_16-50-44.577411,70.95
2024-05-28_16-50-44.606119,78.71
2024-05-28_16-50-44.639037,88.53
2024-05-28_16-50-44.671730,64.06
2024-05-28_16-50-44.704463,76.80
2024-05-28_16-50-44.737233,61.78
2024-05-28_16-50-44.770412,68.02
2024-05-28_16-50-44.802805,71.74
2024-05-28_16-50-44.831421,82.19
2024-05-28_16-50-44.864238,71.82
2024-05-28_16-50-44.896927,77.85
2024-05-28_16-50-44.929725,82.78
2024-05-28_16-50-44.962518,66.13
2024-05-28_16-50-44.995213,61.65
2024-05-28_16-50-45.028009,68.21
2024-05-28_16-50-45.056684,64.81
2024-05-28_16-50-45.089522,69.43
2024-05-28_16-50-45.122262,81.82
2024-05-28_16-50-45.154993,72.31
2024-05-28_16-50-45.187820,71.24
2024-05-28_16-50-45.220532,88.15
2024-05-28_16-50-45.253286,91.42
2024-05-28_16-50-45.281947,68.03
2024-05-28_16-50-45.314790,65.59
2024-05-28_16-50-45.347486,55.56
2024-05-28_16-50-45.380300,66.94
2024-05-28_16-50-45.413038,81.76
2024-05-28_16-50-45.445848,72.24
2024-05-28_16-50-45.478608,71.47
2024-05-28_16-50-45.511316,86.25
2024-05-28_16-50-45.540143,86.14
2024-05-28_16-50-45.572829,74.91
2024-05-28_16-50-45.605579,68.45
2024-05-28_16-50-45.638338,59.99
2024-05-28_16-50-45.671109,61.97
2024-05-28_16-50-45.703890,81.59
2024-05-28_16-50-45.736685,72.08
2024-05-28_16-50-45.765287,72.10
2024-05-28_16-50-45.798065,83.01
2024-05-28_16-50-45.830924,85.75
2024-05-28_16-50-45.863643,87.40
2024-05-28_16-50-45.896363,53.74
2024-05-28_16-50-45.929213,79.15
2024-05-28_16-50-45.961914,62.41
2024-05-28_16-50-45.990671,77.05
2024-05-28_16-50-46.023434,72.55
2024-05-28_16-50-46.056163,72.51
2024-05-28_16-50-46.088861,73.16
2024-05-28_16-50-46.121661,74.84
2024-05-28_16-50-46.154444,94.36
2024-05-28_16-50-46.187234,65.48
2024-05-28_16-50-46.219915,64.52
2024-05-28_16-50-46.248640,53.98
2024-05-28_16-50-46.281357,76.19
2024-05-28_16-50-46.314263,71.95
2024-05-28_16-50-46.346919,72.40
2024-05-28_16-50-46.379724,72.01
2024-05-28_16-50-46.412488,92.06
2024-05-28_16-50-46.445355,90.28
2024-05-28_16-50-46.473941,68.54
2024-05-28_16-50-46.506667,64.01
2024-05-28_16-50-46.539454,80.48
2024-05-28_16-50-46.572274,66.81
2024-05-28_16-50-46.605002,68.05
2024-05-28_16-50-46.637763,71.67
2024-05-28_16-50-46.670508,72.56
2024-05-28_16-50-46.699248,70.93
2024-05-28_16-50-46.731979,92.05
2024-05-28_16-50-46.764751,78.84
2024-05-28_16-50-46.797491,51.64
2024-05-28_16-50-46.830228,68.58
2024-05-28_16-50-46.863139,63.19
2024-05-28_16-50-46.895867,65.80
2024-05-28_16-50-46.928498,71.37
2024-05-28_16-50-46.957267,72.40
2024-05-28_16-50-46.990021,72.86
2024-05-28_16-50-47.022867,85.48
2024-05-28_16-50-47.055574,87.07
2024-05-28_16-50-47.088318,64.79
2024-05-28_16-50-47.121115,78.53
2024-05-28_16-50-47.153832,64.88
2024-05-28_16-50-47.182645,66.02
2024-05-28_16-50-47.215273,71.38
2024-05-28_16-50-47.248042,72.72
2024-05-28_16-50-47.280802,70.68
2024-05-28_16-50-47.313618,93.06
2024-05-28_16-50-47.346352,82.81
2024-05-28_16-50-47.379166,52.03
2024-05-28_16-50-47.407770,68.64
2024-05-28_16-50-47.440590,77.69
2024-05-28_16-50-47.474374,66.82
2024-05-28_16-50-47.506236,72.55
2024-05-28_16-50-47.538896,72.29
2024-05-28_16-50-47.571746,72.42
2024-05-28_16-50-47.604431,88.93
2024-05-28_16-50-47.633083,78.55
2024-05-28_16-50-47.665882,85.32
2024-05-28_16-50-47.698662,66.82
2024-05-28_16-50-47.731433,74.32
2024-05-28_16-50-47.764149,59.56
2024-05-28_16-50-47.796942,67.70
2024-05-28_16-50-47.829655,73.06
2024-05-28_16-50-47.862468,72.15
2024-05-28_16-50-47.891124,87.81
2024-05-28_16-50-47.923904,75.18
2024-05-28_16-50-47.957567,70.73
2024-05-28_16-50-47.989442,64.68
2024-05-28_16-50-48.022211,72.78
2024-05-28_16-50-48.054950,64.61
2024-05-28_16-50-48.087751,70.63
2024-05-28_16-50-48.116403,72.03
2024-05-28_16-50-48.149147,72.48
2024-05-28_16-50-48.181944,90.03
2024-05-28_16-50-48.214807,78.42
2024-05-28_16-50-48.247523,87.15
2024-05-28_16-50-48.280231,66.10
2024-05-28_16-50-48.313029,74.98
2024-05-28_16-50-48.345730,61.02
2024-05-28_16-50-48.374438,68.06
2024-05-28_16-50-48.407227,72.69
2024-05-28_16-50-48.440004,72.13
2024-05-28_16-50-48.472775,88.39
2024-05-28_16-50-48.505611,75.63
2024-05-28_16-50-48.538349,71.92
2024-05-28_16-50-48.571057,64.62
2024-05-28_16-50-48.599703,70.92
2024-05-28_16-50-48.632451,63.60
2024-05-28_16-50-48.665616,67.76
2024-05-28_16-50-48.698444,72.06
2024-05-28_16-50-48.730868,71.88
2024-05-28_16-50-48.763641,80.96
2024-05-28_16-50-48.796288,81.08
2024-05-28_16-50-48.825033,80.41
2024-05-28_16-50-48.857796,63.18
2024-05-28_16-50-48.890520,72.04
2024-05-28_16-50-48.923346,57.19
2024-05-28_16-50-48.956232,66.52
2024-05-28_16-50-48.988873,72.05
2024-05-28_16-50-49.021761,71.88
2024-05-28_16-50-49.054307,91.29
2024-05-28_16-50-49.083097,77.33
2024-05-28_16-50-49.122244,89.59
2024-05-28_16-50-49.148688,65.24
2024-05-28_16-50-49.181361,78.09
2024-05-28_16-50-49.214349,61.52
2024-05-28_16-50-49.246941,63.95
2024-05-28_16-50-49.279596,71.88
2024-05-28_16-50-49.308350,72.02
2024-05-28_16-50-49.341129,81.16
2024-05-28_16-50-49.373904,83.99
2024-05-28_16-50-49.406662,83.23
2024-05-28_16-50-49.439471,61.51
2024-05-28_16-50-49.472203,70.81
2024-05-28_16-50-49.504962,71.12
2024-05-28_16-50-49.533596,65.08
2024-05-28_16-50-49.566357,71.41
2024-05-28_16-50-49.599176,71.71
2024-05-28_16-50-49.631911,80.50
2024-05-28_16-50-49.664756,79.25
2024-05-28_16-50-49.697447,77.07
2024-05-28_16-50-49.730851,69.51
2024-05-28_16-50-49.763025,73.11
2024-05-28_16-50-49.791692,61.40
2024-05-28_16-50-49.825217,61.40
2024-05-28_16-50-49.857238,71.04
2024-05-28_16-50-49.890022,71.87
2024-05-28_16-50-49.922784,81.27
2024-05-28_16-50-49.955523,87.85
2024-05-28_16-50-49.988334,73.66
2024-05-28_16-50-50.017750,76.74
2024-05-28_16-50-50.049765,68.91
2024-05-28_16-50-50.083085,67.64
2024-05-28_16-50-50.115358,62.39
2024-05-28_16-50-50.148039,67.71
2024-05-28_16-50-50.180768,71.48
2024-05-28_16-50-50.213522,81.23
2024-05-28_16-50-50.242222,81.07
2024-05-28_16-50-50.275631,78.09
2024-05-28_16-50-50.308475,87.72
2024-05-28_16-50-50.340559,67.81
2024-05-28_16-50-50.373349,74.32
2024-05-28_16-50-50.406105,58.00
2024-05-28_16-50-50.438868,67.46
2024-05-28_16-50-50.467534,72.40
2024-05-28_16-50-50.500362,81.66
2024-05-28_16-50-50.533233,77.47
2024-05-28_16-50-50.565842,75.49
2024-05-28_16-50-50.598606,77.06
2024-05-28_16-50-50.631397,66.78
2024-05-28_16-50-50.664149,77.22
2024-05-28_16-50-50.696860,60.75
2024-05-28_16-50-50.725861,65.72
2024-05-28_16-50-50.758383,71.51
2024-05-28_16-50-50.791108,81.40
2024-05-28_16-50-50.823907,82.57
2024-05-28_16-50-50.856701,79.92
2024-05-28_16-50-50.889456,89.84
2024-05-28_16-50-50.922113,64.65
2024-05-28_16-50-50.950889,72.76
2024-05-28_16-50-50.983593,56.85
2024-05-28_16-50-51.016410,65.47
2024-05-28_16-50-51.049212,70.60
2024-05-28_16-50-51.081936,82.00
2024-05-28_16-50-51.114701,78.91
2024-05-28_16-50-51.150613,75.87
2024-05-28_16-50-51.186264,77.78
2024-05-28_16-50-51.208958,67.71
2024-05-28_16-50-51.241819,75.24
2024-05-28_16-50-51.275214,59.71
2024-05-28_16-50-51.307236,63.22
2024-05-28_16-50-51.339962,71.50
2024-05-28_16-50-51.372761,81.66
2024-05-28_16-50-51.405476,70.80
2024-05-28_16-50-51.434135,80.63
2024-05-28_16-50-51.466932,81.64
2024-05-28_16-50-51.499729,63.83
2024-05-28_16-50-51.532450,72.72
2024-05-28_16-50-51.565293,71.82
2024-05-28_16-50-51.598042,65.66
2024-05-28_16-50-51.630693,71.06
2024-05-28_16-50-51.659530,81.89
2024-05-28_16-50-51.692212,79.06
2024-05-28_16-50-51.725077,75.59
2024-05-28_16-50-51.757782,77.80
2024-05-28_16-50-51.790592,69.06
2024-05-28_16-50-51.823401,75.45
2024-05-28_16-50-51.901702,60.10
2024-05-28_16-50-51.903610,63.30
2024-05-28_16-50-51.917885,71.33
2024-05-28_16-50-51.954828,81.22
2024-05-28_16-50-51.983157,81.99
2024-05-28_16-50-52.015863,78.60
2024-05-28_16-50-52.050701,79.02
2024-05-28_16-50-52.081343,64.53
2024-05-28_16-50-52.110088,73.15
2024-05-28_16-50-52.142909,55.88
2024-05-28_16-50-52.176487,65.82
2024-05-28_16-50-52.208314,71.09
2024-05-28_16-50-52.241081,81.25
2024-05-28_16-50-52.273887,77.50
2024-05-28_16-50-52.306813,75.44
2024-05-28_16-50-52.339474,77.11
2024-05-28_16-50-52.368075,69.48
2024-05-28_16-50-52.400838,78.24
2024-05-28_16-50-52.433557,59.99
2024-05-28_16-50-52.466348,64.66
2024-05-28_16-50-52.499143,71.61
2024-05-28_16-50-52.531939,81.06
2024-05-28_16-50-52.564597,79.56
2024-05-28_16-50-52.593339,78.20
2024-05-28_16-50-52.626072,71.26
2024-05-28_16-50-52.658895,70.21
2024-05-28_16-50-52.691678,75.03
2024-05-28_16-50-52.724416,57.76
2024-05-28_16-50-52.757248,67.63
2024-05-28_16-50-52.789935,71.12
2024-05-28_16-50-52.822682,81.02
2024-05-28_16-50-52.851422,84.34
2024-05-28_16-50-52.884157,86.08
2024-05-28_16-50-52.916916,62.83
2024-05-28_16-50-52.949684,70.23
2024-05-28_16-50-52.982427,67.53
2024-05-28_16-50-53.015281,62.96
2024-05-28_16-50-53.047937,69.27
2024-05-28_16-50-53.093518,71.87
2024-05-28_16-50-53.109416,90.89
2024-05-28_16-50-53.142254,77.50
2024-05-28_16-50-53.174971,77.80
2024-05-28_16-50-53.207758,67.69
2024-05-28_16-50-53.240687,75.81
2024-05-28_16-50-53.273195,75.98
2024-05-28_16-50-53.301992,62.68
2024-05-28_16-50-53.334779,71.61
2024-05-28_16-50-53.367519,72.60
2024-05-28_16-50-53.400285,89.53
2024-05-28_16-50-53.433007,78.63
2024-05-28_16-50-53.465793,80.64
