timestamp,EMG
2024-05-28_12-54-56.381715,69
2024-05-28_12-54-56.382393,"32,68.90"
2024-05-28_12-54-56.382541,"102.50,56.94"
2024-05-28_12-54-56.395550,"80.58,50.31"
2024-05-28_12-54-56.395973,"67.95,67.26"
2024-05-28_12-54-56.396848,"76.04,62.93"
2024-05-28_12-54-56.398384,"89.48,86.23"
2024-05-28_12-54-56.398616,"87.57,85.74"
2024-05-28_12-54-56.398837,"97.58,81.58"
2024-05-28_12-54-56.398971,"95.06,81.15"
2024-05-28_12-54-56.405021,"85.62,51.69"
2024-05-28_12-54-58.013672,"82.51,81.93"
2024-05-28_12-54-58.045971,"92.70,79.77"
2024-05-28_12-54-58.078708,"103.78,80.75"
2024-05-28_12-54-58.111464,"99.16,51.60"
2024-05-28_12-54-58.144211,"96.95,53.70"
2024-05-28_12-54-58.176919,"97.09,57.28"
2024-05-28_12-54-58.209639,"63.90,58.32"
2024-05-28_12-54-58.238349,"79.09,63.56"
2024-05-28_12-54-58.271942,"77.95,78.60"
2024-05-28_12-54-58.303962,"80.31,97.00"
2024-05-28_12-54-58.336777,"87.42,89.19"
2024-05-28_12-54-58.369492,"84.54,73.30"
2024-05-28_12-54-58.402171,"97.01,68.06"
2024-05-28_12-54-58.434888,"98.50,56.59"
2024-05-28_12-54-58.463663,"104.05,46.50"
2024-05-28_12-54-58.496545,"88.49,58.66"
2024-05-28_12-54-58.529244,"56.98,58.59"
2024-05-28_12-54-58.561927,"71.52,78.36"
2024-05-28_12-54-58.594675,"86.93,85.09"
2024-05-28_12-54-58.627445,"93.83,80.42"
2024-05-28_12-54-58.660250,"104.33,84.07"
2024-05-28_12-54-58.691112,"98.68,69.29"
2024-05-28_12-54-58.721762,"99.13,68.68"
2024-05-28_12-54-58.754443,"106.39,56.88"
2024-05-28_12-54-58.787223,"98.94,54.00"
2024-05-28_12-54-58.819951,"74.52,56.43"
2024-05-28_12-54-58.852732,"73.04,87.23"
2024-05-28_12-54-58.885447,"81.12,87.75"
2024-05-28_12-54-58.914330,"86.75,93.04"
2024-05-28_12-54-58.947025,"82.54,75.90"
2024-05-28_12-54-58.979711,"92.58,84.00"
2024-05-28_12-54-59.012484,"93.76,72.38"
2024-05-28_12-54-59.047494,"90.47,65.31"
2024-05-28_12-54-59.078236,"95.80,57.72"
2024-05-28_12-54-59.110718,"68.92,56.91"
2024-05-28_12-54-59.139505,"69.25,86.49"
2024-05-28_12-54-59.172234,"80.65,80.34"
2024-05-28_12-54-59.204993,"81.02,88.25"
2024-05-28_12-54-59.237803,"83.10,85.99"
2024-05-28_12-54-59.270546,"91.45,84.88"
2024-05-28_12-54-59.303291,"90.39,54.49"
2024-05-28_12-54-59.335987,"83.73,56.56"
2024-05-28_12-54-59.364866,"94.97,53.58"
2024-05-28_12-54-59.397666,"94.31,54.19"
2024-05-28_12-54-59.430254,"64.72,55.67"
2024-05-28_12-54-59.463016,"63.39,58.63"
2024-05-28_12-54-59.495796,"87.74,91.28"
2024-05-28_12-54-59.528541,"81.36,88.35"
2024-05-28_12-54-59.561246,"92.59,85.23"
2024-05-28_12-54-59.593955,"95.70,72.91"
2024-05-28_12-54-59.622754,"90.03,64.38"
2024-05-28_12-54-59.655584,"112.76,56.51"
2024-05-28_12-54-59.688284,"82.94,54.66"
2024-05-28_12-54-59.724417,"79.43,55.77"
2024-05-28_12-54-59.759195,"80.80,56.57"
2024-05-28_12-54-59.786667,"78.63,72.05"
2024-05-28_12-54-59.819221,"81.59,87.27"
2024-05-28_12-54-59.848032,"71.95,75.77"
2024-05-28_12-54-59.880803,"73.89,78.13"
2024-05-28_12-54-59.913597,"104.22,71.90"
2024-05-28_12-54-59.946420,"94.26,53.96"
2024-05-28_12-54-59.979093,"92.77,54.17"
2024-05-28_12-55-00.011833,"81.18,53.68"
2024-05-28_12-55-00.044548,"68.34,55.59"
2024-05-28_12-55-00.073320,"70.73,85.84"
2024-05-28_12-55-00.106036,"80.12,89.82"
2024-05-28_12-55-00.138807,"88.30,79.95"
2024-05-28_12-55-00.171577,"86.49,78.61"
2024-05-28_12-55-00.204332,"97.64,78.06"
2024-05-28_12-55-00.237119,"113.37,56.55"
2024-05-28_12-55-00.269743,"75.99,54.24"
2024-05-28_12-55-00.298530,"101.15,52.97"
2024-05-28_12-55-00.331376,"66.46,59.09"
2024-05-28_12-55-00.364215,"72.58,51.98"
2024-05-28_12-55-00.396841,"75.09,96.59"
2024-05-28_12-55-00.429638,"93.42,88.31"
2024-05-28_12-55-00.465328,"90.59,82.93"
2024-05-28_12-55-00.495578,"96.07,74.14"
2024-05-28_12-55-00.530098,"84.77,71.17"
2024-05-28_12-55-00.558550,"67.20,56.59"
2024-05-28_12-55-00.589401,"84.94,53.49"
2024-05-28_12-55-00.622318,"73.18,57.55"
2024-05-28_12-55-00.654913,"61.16,76.21"
2024-05-28_12-55-00.687593,"76.57,90.62"
2024-05-28_12-55-00.720285,"84.26,85.78"
2024-05-28_12-55-00.749125,"93.68,76.42"
2024-05-28_12-55-00.781848,"89.93,80.67"
2024-05-28_12-55-00.814625,"109.40,84.97"
2024-05-28_12-55-00.847412,"88.79,54.37"
2024-05-28_12-55-00.880151,"105.53,52.99"
2024-05-28_12-55-00.912873,"90.55,57.12"
2024-05-28_12-55-00.945613,"67.01,50.97"
2024-05-28_12-55-00.974350,"70.41,81.94"
2024-05-28_12-55-01.007186,"78.54,79.98"
2024-05-28_12-55-01.039875,"95.70,83.92"
2024-05-28_12-55-01.072648,"98.96,79.19"
2024-05-28_12-55-01.105455,"91.17,81.95"
2024-05-28_12-55-01.138210,"105.16,52.62"
2024-05-28_12-55-01.170857,"98.22,51.39"
2024-05-28_12-55-01.199884,"93.85,52.83"
2024-05-28_12-55-01.232384,"81.08,59.68"
2024-05-28_12-55-01.265151,"62.57,58.42"
2024-05-28_12-55-01.297924,"73.56,80.56"
2024-05-28_12-55-01.330711,"77.08,85.14"
2024-05-28_12-55-01.363472,"82.06,93.10"
2024-05-28_12-55-01.396327,"102.97,84.24"
2024-05-28_12-55-01.424948,"85.77,54.93"
2024-05-28_12-55-01.457664,"103.73,53.09"
2024-05-28_12-55-01.490455,"97.12,56.83"
2024-05-28_12-55-01.523201,"87.76,47.83"
2024-05-28_12-55-01.555997,"71.77,61.37"
2024-05-28_12-55-01.588719,"77.41,60.45"
2024-05-28_12-55-01.621392,"83.92,88.43"
2024-05-28_12-55-01.650145,"86.10,87.15"
2024-05-28_12-55-01.683002,"91.00,90.55"
2024-05-28_12-55-01.721967,"102.49,81.08"
2024-05-28_12-55-01.748509,"97.18,51.56"
2024-05-28_12-55-01.781248,"98.92,53.29"
2024-05-28_12-55-01.813977,"106.07,57.55"
2024-05-28_12-55-01.846683,"64.47,57.83"
2024-05-28_12-55-01.875397,"61.45,56.11"
2024-05-28_12-55-01.908151,"79.45,79.11"
2024-05-28_12-55-01.941088,"80.28,88.85"
2024-05-28_12-55-01.973764,"88.02,96.80"
2024-05-28_12-55-02.006484,"85.40,73.72"
2024-05-28_12-55-02.039308,"106.66,68.24"
2024-05-28_12-55-02.072076,"98.37,56.98"
2024-05-28_12-55-02.100900,"96.89,46.88"
2024-05-28_12-55-02.133461,"83.33,60.40"
2024-05-28_12-55-02.166237,"56.91,58.86"
2024-05-28_12-55-02.199056,"77.60,76.95"
2024-05-28_12-55-02.232072,"80.57,94.87"
2024-05-28_12-55-02.264951,"80.14,88.33"
2024-05-28_12-55-02.297381,"83.90,78.07"
2024-05-28_12-55-02.326036,"90.32,55.31"
2024-05-28_12-55-02.358820,"88.48,53.23"
2024-05-28_12-55-02.391697,"94.58,56.80"
2024-05-28_12-55-02.424325,"72.70,55.49"
2024-05-28_12-55-02.457106,"82.37,55.10"
2024-05-28_12-55-02.489901,"67.71,64.60"
2024-05-28_12-55-02.522591,"84.25,88.80"
2024-05-28_12-55-02.551517,"83.70,94.28"
2024-05-28_12-55-02.584280,"67.24,87.33"
2024-05-28_12-55-02.616902,"100.21,73.08"
2024-05-28_12-55-02.649595,"95.59,57.02"
2024-05-28_12-55-02.682380,"100.07,47.31"
2024-05-28_12-55-02.715089,"114.28,56.35"
2024-05-28_12-55-02.747800,"70.09,56.33"
2024-05-28_12-55-02.776510,"68.22,57.41"
2024-05-28_12-55-02.809252,"84.22,70.51"
2024-05-28_12-55-02.842063,"85.66,88.91"
2024-05-28_12-55-02.874777,"79.50,88.12"
2024-05-28_12-55-02.907582,"95.65,71.72"
2024-05-28_12-55-02.940797,"99.20,80.85"
2024-05-28_12-55-02.973139,"103.39,57.38"
2024-05-28_12-55-03.005773,"92.93,54.35"
2024-05-28_12-55-03.034551,"96.78,53.44"
2024-05-28_12-55-03.067449,"65.40,56.04"
2024-05-28_12-55-03.100632,"75.54,95.25"
2024-05-28_12-55-03.132898,"78.22,95.80"
2024-05-28_12-55-03.165623,"76.42,83.88"
2024-05-28_12-55-03.198365,"96.16,78.58"
2024-05-28_12-55-03.231106,"97.39,72.38"
2024-05-28_12-55-03.259860,"100.39,64.72"
2024-05-28_12-55-03.292575,"111.89,56.57"
2024-05-28_12-55-03.325339,"94.17,54.72"
2024-05-28_12-55-03.359689,"75.98,56.07"
2024-05-28_12-55-03.391021,"60.48,57.02"
2024-05-28_12-55-03.423614,"79.03,74.67"
2024-05-28_12-55-03.456330,"84.68,100.10"
2024-05-28_12-55-03.485146,"94.79,79.26"
2024-05-28_12-55-03.517894,"93.52,80.66"
2024-05-28_12-55-03.550617,"102.48,71.38"
2024-05-28_12-55-03.583435,"95.72,53.46"
2024-05-28_12-55-03.616143,"106.14,53.17"
2024-05-28_12-55-03.648876,"91.69,52.85"
2024-05-28_12-55-03.681607,"66.89,56.08"
2024-05-28_12-55-03.710361,"72.46,81.84"
2024-05-28_12-55-03.743177,"81.30,80.55"
2024-05-28_12-55-03.775938,"85.77,88.35"
2024-05-28_12-55-03.808623,"87.10,73.00"
2024-05-28_12-55-03.841405,"94.45,77.95"
2024-05-28_12-55-03.874143,"112.72,71.84"
2024-05-28_12-55-03.906821,"88.80,54.15"
2024-05-28_12-55-03.935696,"110.42,52.90"
2024-05-28_12-55-03.968425,"76.77,58.30"
2024-05-28_12-55-04.001158,"79.21,52.21"
2024-05-28_12-55-04.033913,"74.99,81.12"
2024-05-28_12-55-04.066707,"83.38,77.41"
2024-05-28_12-55-04.099431,"85.84,80.39"
2024-05-28_12-55-04.132104,"101.57,73.26"
2024-05-28_12-55-04.161059,"95.95,82.22"
2024-05-28_12-55-04.193720,"97.88,52.91"
2024-05-28_12-55-04.226464,"106.46,51.36"
2024-05-28_12-55-04.259181,"85.72,53.93"
2024-05-28_12-55-04.292002,"61.66,62.65"
2024-05-28_12-55-04.324670,"80.89,80.84"
2024-05-28_12-55-04.357353,"82.45,85.52"
2024-05-28_12-55-04.386143,"82.14,81.90"
2024-05-28_12-55-04.418899,"100.69,83.57"
2024-05-28_12-55-04.451761,"101.78,71.98"
2024-05-28_12-55-04.484441,"86.93,54.17"
2024-05-28_12-55-04.517243,"97.44,52.73"
2024-05-28_12-55-04.549948,"92.07,56.37"
2024-05-28_12-55-04.582651,"71.23,48.99"
2024-05-28_12-55-04.611415,"60.92,62.16"
2024-05-28_12-55-04.644186,"79.38,79.18"
2024-05-28_12-55-04.676961,"86.31,93.41"
2024-05-28_12-55-04.709708,"92.92,80.75"
2024-05-28_12-55-04.742522,"95.07,80.55"
2024-05-28_12-55-04.775257,"105.94,68.15"
2024-05-28_12-55-04.807946,"97.19,51.18"
2024-05-28_12-55-04.836677,"96.60,52.66"
2024-05-28_12-55-04.869446,"84.19,58.93"
2024-05-28_12-55-04.902193,"61.75,58.60"
2024-05-28_12-55-04.935030,"73.65,75.82"
2024-05-28_12-55-04.967829,"75.26,90.76"
2024-05-28_12-55-05.000628,"92.65,92.89"
2024-05-28_12-55-05.033199,"99.40,83.31"
2024-05-28_12-55-05.061969,"73.67,70.14"
2024-05-28_12-55-05.094709,"97.72,68.50"
2024-05-28_12-55-05.127475,"96.37,56.44"
2024-05-28_12-55-05.160296,"97.48,46.42"
2024-05-28_12-55-05.193020,"74.97,60.06"
2024-05-28_12-55-05.225788,"70.97,59.39"
2024-05-28_12-55-05.258487,"77.96,89.53"
2024-05-28_12-55-05.287197,"89.86,84.97"
2024-05-28_12-55-05.320045,"89.22,79.82"
2024-05-28_12-55-05.352733,"97.23,79.18"
2024-05-28_12-55-05.385550,"96.86,68.88"
2024-05-28_12-55-05.418335,"100.33,52.46"
2024-05-28_12-55-05.451067,"108.34,56.30"
2024-05-28_12-55-05.483844,"76.33,55.91"
2024-05-28_12-55-05.514280,"68.40,74.16"
2024-05-28_12-55-05.545498,"85.83,66.70"
2024-05-28_12-55-05.578146,"76.85,72.16"
2024-05-28_12-55-05.610818,"85.12,92.28"
2024-05-28_12-55-05.643652,"87.25,83.74"
2024-05-28_12-55-05.676310,"104.27,80.35"
2024-05-28_12-55-05.709039,"85.37,55.86"
2024-05-28_12-55-05.741733,"100.53,46.26"
2024-05-28_12-55-05.770547,"101.67,56.79"
2024-05-28_12-55-05.803431,"58.85,58.00"
2024-05-28_12-55-05.836091,"63.17,55.68"
2024-05-28_12-55-05.868828,"81.62,86.65"
2024-05-28_12-55-05.901579,"90.95,78.45"
2024-05-28_12-55-05.934309,"97.86,84.98"
2024-05-28_12-55-05.967001,"91.09,71.63"
2024-05-28_12-55-05.995799,"99.37,81.09"
2024-05-28_12-55-06.028616,"96.22,56.70"
2024-05-28_12-55-06.061379,"93.92,54.00"
2024-05-28_12-55-06.094185,"79.59,54.95"
2024-05-28_12-55-06.126863,"60.26,57.53"
2024-05-28_12-55-06.159598,"75.32,77.39"
2024-05-28_12-55-06.192241,"87.53,89.11"
2024-05-28_12-55-06.221036,"94.35,77.15"
2024-05-28_12-55-06.253854,"96.00,80.75"
2024-05-28_12-55-06.286607,"93.11,72.52"
2024-05-28_12-55-06.319364,"101.15,46.63"
2024-05-28_12-55-06.352177,"101.90,56.47"
2024-05-28_12-55-06.384823,"86.98,54.87"
2024-05-28_12-55-06.417536,"73.40,56.25"
2024-05-28_12-55-06.446350,"72.53,84.79"
2024-05-28_12-55-06.479320,"80.38,80.79"
2024-05-28_12-55-06.511868,"89.30,93.73"
2024-05-28_12-55-06.544628,"92.03,76.96"
2024-05-28_12-55-06.577388,"86.74,79.94"
2024-05-28_12-55-06.610135,"96.01,56.19"
2024-05-28_12-55-06.642826,"95.95,53.89"
2024-05-28_12-55-06.671626,"106.86,53.02"
2024-05-28_12-55-06.704358,"75.01,53.92"
2024-05-28_12-55-06.737117,"65.67,57.09"
2024-05-28_12-55-06.769893,"86.31,86.32"
2024-05-28_12-55-06.802660,"83.08,84.94"
2024-05-28_12-55-06.835384,"89.43,78.81"
2024-05-28_12-55-06.868096,"96.23,74.07"
2024-05-28_12-55-06.896855,"99.42,78.03"
2024-05-28_12-55-06.929710,"112.47,56.44"
2024-05-28_12-55-06.962451,"90.12,54.61"
2024-05-28_12-55-06.995240,"96.56,54.02"
2024-05-28_12-55-07.027977,"63.42,59.24"
2024-05-28_12-55-07.060684,"72.41,53.18"
2024-05-28_12-55-07.093534,"75.38,93.51"
2024-05-28_12-55-07.122248,"81.48,76.55"
2024-05-28_12-55-07.154950,"86.32,89.97"
2024-05-28_12-55-07.187676,"103.23,72.79"
2024-05-28_12-55-07.220428,"84.49,69.92"
2024-05-28_12-55-07.253203,"98.58,52.92"
2024-05-28_12-55-07.285930,"97.36,51.84"
2024-05-28_12-55-07.318632,"76.41,53.85"
2024-05-28_12-55-07.347422,"59.14,75.45"
2024-05-28_12-55-07.380212,"76.05,87.89"
2024-05-28_12-55-07.412914,"84.71,83.72"
2024-05-28_12-55-07.445702,"93.78,76.73"
2024-05-28_12-55-07.478517,"91.14,80.07"
2024-05-28_12-55-07.511254,"108.04,72.28"
2024-05-28_12-55-07.543957,"75.84,54.13"
2024-05-28_12-55-07.572640,"107.06,53.01"
2024-05-28_12-55-07.605442,"95.96,56.16"
2024-05-28_12-55-07.638264,"68.41,51.06"
2024-05-28_12-55-07.670957,"69.68,102.33"
2024-05-28_12-55-07.703965,"82.54,79.38"
2024-05-28_12-55-07.736504,"91.11,86.45"
2024-05-28_12-55-07.769172,"96.97,79.32"
2024-05-28_12-55-07.801921,"100.62,80.99"
2024-05-28_12-55-07.830676,"96.88,68.09"
2024-05-28_12-55-07.863469,"97.28,51.55"
2024-05-28_12-55-07.896259,"102.79,52.96"
2024-05-28_12-55-07.929007,"79.95,59.54"
2024-05-28_12-55-07.961811,"62.17,58.37"
2024-05-28_12-55-07.994640,"75.91,76.19"
2024-05-28_12-55-08.023268,"75.73,86.93"
2024-05-28_12-55-08.056054,"82.33,91.08"
2024-05-28_12-55-08.088746,"103.72,81.00"
2024-05-28_12-55-08.121484,"85.91,70.76"
2024-05-28_12-55-08.154298,"107.28,52.41"
2024-05-28_12-55-08.187074,"96.81,56.60"
2024-05-28_12-55-08.219725,"96.53,46.62"
2024-05-28_12-55-08.248539,"75.05,60.31"
2024-05-28_12-55-08.281280,"66.06,64.15"
2024-05-28_12-55-08.314026,"75.82,90.66"
2024-05-28_12-55-08.346779,"99.61,83.11"
2024-05-28_12-55-08.379707,"92.99,83.46"
2024-05-28_12-55-08.412341,"97.85,80.09"
2024-05-28_12-55-08.445010,"95.71,51.98"
2024-05-28_12-55-08.477758,"100.60,52.95"
2024-05-28_12-55-08.506591,"109.14,56.95"
2024-05-28_12-55-08.554965,"77.41,56.26"
2024-05-28_12-55-08.583374,"71.62,91.01"
2024-05-28_12-55-08.604872,"81.10,67.28"
2024-05-28_12-55-08.637611,"80.21,81.04"
2024-05-28_12-55-08.670287,"87.75,90.27"
2024-05-28_12-55-08.702965,"85.15,79.92"
2024-05-28_12-55-08.731772,"104.98,79.53"
2024-05-28_12-55-08.765333,"96.34,56.16"
2024-05-28_12-55-08.797301,"90.23,46.75"
2024-05-28_12-55-08.830144,"104.03,56.71"
2024-05-28_12-55-08.862849,"58.98,57.99"
2024-05-28_12-55-08.895543,"65.16,82.71"
2024-05-28_12-55-08.928243,"83.01,87.30"
2024-05-28_12-55-08.957036,"89.15,82.78"
2024-05-28_12-55-08.989904,"96.79,84.51"
2024-05-28_12-55-09.022670,"94.19,74.47"
2024-05-28_12-55-09.055778,"97.11,82.21"
2024-05-28_12-55-09.088192,"107.41,56.59"
2024-05-28_12-55-09.120844,"103.35,54.00"
2024-05-28_12-55-09.153568,"94.39,53.93"
2024-05-28_12-55-09.182321,"61.90,56.83"
2024-05-28_12-55-09.215115,"77.48,55.76"
2024-05-28_12-55-09.247854,"87.69,91.15"
2024-05-28_12-55-09.280607,"80.85,84.81"
2024-05-28_12-55-09.313695,"92.44,87.20"
2024-05-28_12-55-09.346110,"92.72,73.06"
2024-05-28_12-55-09.378811,"89.15,78.56"
2024-05-28_12-55-09.407542,"103.99,56.35"
2024-05-28_12-55-09.440415,"89.52,54.60"
2024-05-28_12-55-09.473119,"82.89,55.12"
2024-05-28_12-55-09.505877,"60.69,67.90"
2024-05-28_12-55-09.538649,"77.93,84.84"
2024-05-28_12-55-09.571397,"84.07,91.14"
2024-05-28_12-55-09.604061,"95.25,77.61"
2024-05-28_12-55-09.632845,"98.18,80.22"
2024-05-28_12-55-09.665604,"90.86,71.71"
2024-05-28_12-55-09.698425,"94.71,70.35"
2024-05-28_12-55-09.731154,"108.59,53.51"
2024-05-28_12-55-09.763897,"93.42,52.30"
2024-05-28_12-55-09.796643,"72.81,55.64"
2024-05-28_12-55-09.829328,"59.71,58.01"
2024-05-28_12-55-09.858078,"75.96,85.74"
2024-05-28_12-55-09.890921,"84.80,83.69"
2024-05-28_12-55-09.923647,"91.74,78.45"
2024-05-28_12-55-09.956484,"87.87,82.17"
2024-05-28_12-55-09.989176,"106.64,73.08"
2024-05-28_12-55-10.021911,"89.83,54.43"
2024-05-28_12-55-10.054630,"106.90,53.36"
2024-05-28_12-55-10.083372,"96.25,56.73"
2024-05-28_12-55-10.116171,"69.08,51.33"
2024-05-28_12-55-10.148894,"74.96,71.55"
2024-05-28_12-55-10.181674,"82.26,79.87"
2024-05-28_12-55-10.214494,"87.22,89.72"
2024-05-28_12-55-10.247213,"94.69,74.16"
2024-05-28_12-55-10.279879,"95.36,81.92"
2024-05-28_12-55-10.308613,"106.82,68.50"
2024-05-28_12-55-10.341503,"99.65,51.45"
2024-05-28_12-55-10.374171,"96.19,53.44"
2024-05-28_12-55-10.406937,"90.15,58.68"
2024-05-28_12-55-10.439715,"62.86,58.99"
2024-05-28_12-55-10.472521,"71.14,100.00"
2024-05-28_12-55-10.506759,"80.52,80.23"
2024-05-28_12-55-10.539448,"78.82,102.58"
2024-05-28_12-55-10.566753,"83.66,93.42"
2024-05-28_12-55-10.599509,"93.65,72.57"
2024-05-28_12-55-10.632287,"106.28,52.83"
2024-05-28_12-55-10.664969,"98.24,57.36"
2024-05-28_12-55-10.697734,"106.71,46.73"
2024-05-28_12-55-10.730419,"77.53,60.66"
2024-05-28_12-55-10.759178,"56.21,59.88"
2024-05-28_12-55-10.791956,"74.69,75.13"
2024-05-28_12-55-10.824794,"85.87,92.91"
2024-05-28_12-55-10.857663,"83.61,80.70"
2024-05-28_12-55-10.890585,"89.81,76.82"
2024-05-28_12-55-10.923081,"92.30,53.67"
2024-05-28_12-55-10.955765,"98.98,53.25"
2024-05-28_12-55-10.984501,"94.50,56.56"
2024-05-28_12-55-11.017256,"88.89,55.22"
2024-05-28_12-55-11.050036,"71.11,57.88"
2024-05-28_12-55-11.082725,"71.79,87.05"
2024-05-28_12-55-11.115538,"79.84,90.45"
2024-05-28_12-55-11.148278,"78.38,95.27"
2024-05-28_12-55-11.180994,"84.07,73.89"
2024-05-28_12-55-11.209706,"105.95,80.75"
2024-05-28_12-55-11.242459,"95.96,56.77"
2024-05-28_12-55-11.275242,"101.14,46.96"
2024-05-28_12-55-11.307991,"108.72,56.66"
2024-05-28_12-55-11.340755,"77.20,56.16"
2024-05-28_12-55-11.373517,"69.87,57.17"
2024-05-28_12-55-11.406268,"71.00,70.78"
2024-05-28_12-55-11.434978,"83.93,88.91"
2024-05-28_12-55-11.467753,"86.94,84.79"
2024-05-28_12-55-11.500523,"92.28,80.17"
2024-05-28_12-55-11.533250,"98.00,80.13"
2024-05-28_12-55-11.566087,"105.35,56.04"
2024-05-28_12-55-11.598806,"95.15,53.39"
2024-05-28_12-55-11.635257,"102.66,53.60"
2024-05-28_12-55-11.664303,"69.99,55.23"
2024-05-28_12-55-11.693071,"63.21,60.27"
2024-05-28_12-55-11.725869,"81.09,95.28"
2024-05-28_12-55-11.758568,"91.58,79.87"
2024-05-28_12-55-11.791387,"87.05,82.88"
2024-05-28_12-55-11.824129,"84.87,75.43"
2024-05-28_12-55-11.856882,"98.84,64.22"
2024-05-28_12-55-11.889540,"111.53,57.07"
2024-05-28_12-55-11.918539,"87.66,54.48"
2024-05-28_12-55-11.951088,"94.94,53.77"
2024-05-28_12-55-11.983842,"62.53,60.14"
2024-05-28_12-55-12.016615,"71.14,51.80"
2024-05-28_12-55-12.049358,"82.13,93.34"
2024-05-28_12-55-12.082112,"81.28,84.51"
2024-05-28_12-55-12.114794,"91.69,88.43"
2024-05-28_12-55-12.143554,"102.89,73.02"
2024-05-28_12-55-12.176385,"95.44,69.78"
2024-05-28_12-55-12.209089,"108.00,52.96"
2024-05-28_12-55-12.241856,"100.48,51.92"
2024-05-28_12-55-12.274682,"81.54,54.11"
2024-05-28_12-55-12.307358,"61.56,64.31"
2024-05-28_12-55-12.340046,"80.15,75.35"
2024-05-28_12-55-12.368823,"86.75,85.49"
2024-05-28_12-55-12.401736,"80.89,83.65"
2024-05-28_12-55-12.434438,"94.84,89.18"
2024-05-28_12-55-12.467157,"102.11,86.20"
2024-05-28_12-55-12.500075,"88.87,54.44"
2024-05-28_12-55-12.532671,"108.52,53.82"
2024-05-28_12-55-12.565287,"95.19,56.45"
2024-05-28_12-55-12.594085,"76.90,49.70"
2024-05-28_12-55-12.626874,"62.14,67.90"
2024-05-28_12-55-12.659662,"73.79,82.82"
2024-05-28_12-55-12.692473,"76.34,100.49"
2024-05-28_12-55-12.725139,"97.71,80.72"
2024-05-28_12-55-12.757913,"87.19,82.65"
2024-05-28_12-55-12.790603,"95.74,67.41"
2024-05-28_12-55-12.819357,"98.09,51.64"
2024-05-28_12-55-12.852193,"100.04,53.08"
2024-05-28_12-55-12.884930,"104.75,58.41"
2024-05-28_12-55-12.917837,"65.16,57.09"
2024-05-28_12-55-12.950535,"76.78,64.54"
2024-05-28_12-55-12.983144,"80.14,79.93"
2024-05-28_12-55-13.015856,"83.38,93.70"
2024-05-28_12-55-13.044708,"100.01,88.82"
2024-05-28_12-55-13.077399,"85.27,73.16"
2024-05-28_12-55-13.110213,"105.83,68.20"
2024-05-28_12-55-13.143128,"98.78,56.85"
2024-05-28_12-55-13.175680,"105.56,46.91"
2024-05-28_12-55-13.208466,"95.14,58.42"
2024-05-28_12-55-13.241106,"57.86,58.41"
2024-05-28_12-55-13.269911,"76.74,56.31"
2024-05-28_12-55-13.302701,"87.50,86.25"
2024-05-28_12-55-13.335471,"75.30,87.81"
2024-05-28_12-55-13.368220,"95.23,83.84"
2024-05-28_12-55-13.401031,"93.81,71.18"
2024-05-28_12-55-13.433720,"99.20,68.47"
2024-05-28_12-55-13.466429,"108.25,58.07"
2024-05-28_12-55-13.495163,"100.55,54.73"
2024-05-28_12-55-13.527921,"89.53,55.68"
2024-05-28_12-55-13.565813,"63.57,57.69"
2024-05-28_12-55-13.593525,"76.68,68.20"
2024-05-28_12-55-13.626268,"78.84,97.21"
2024-05-28_12-55-13.658974,"79.25,80.61"
2024-05-28_12-55-13.691675,"97.27,80.33"
2024-05-28_12-55-13.720437,"89.84,74.37"
2024-05-28_12-55-13.753177,"97.98,47.02"
2024-05-28_12-55-13.786000,"103.76,57.39"
2024-05-28_12-55-13.818768,"93.34,55.62"
2024-05-28_12-55-13.851559,"87.69,56.51"
2024-05-28_12-55-13.884208,"63.87,69.15"
2024-05-28_12-55-13.916917,"79.34,81.12"
2024-05-28_12-55-13.945716,"81.82,93.76"
2024-05-28_12-55-13.978510,"84.24,81.03"
2024-05-28_12-55-14.011240,"83.36,86.97"
2024-05-28_12-55-14.044051,"107.49,73.72"
2024-05-28_12-55-14.076906,"95.25,54.19"
2024-05-28_12-55-14.109489,"98.74,54.83"
2024-05-28_12-55-14.142221,"96.86,52.41"
2024-05-28_12-55-14.170978,"74.04,58.49"
2024-05-28_12-55-14.203735,"60.64,59.28"
2024-05-28_12-55-14.236544,"77.25,85.99"
2024-05-28_12-55-14.271387,"71.90,91.24"
2024-05-28_12-55-14.302106,"74.78,89.76"
2024-05-28_12-55-14.334798,"72.56,80.43"
2024-05-28_12-55-14.367535,"100.57,63.95"
2024-05-28_12-55-14.396272,"89.51,55.94"
2024-05-28_12-55-14.429029,"95.42,54.75"
2024-05-28_12-55-14.461853,"98.27,58.87"
2024-05-28_12-55-14.494528,"68.59,54.02"
2024-05-28_12-55-14.527274,"75.20,65.82"
2024-05-28_12-55-14.560061,"80.25,81.60"
2024-05-28_12-55-14.592773,"82.45,97.37"
2024-05-28_12-55-14.621492,"89.57,85.98"
2024-05-28_12-55-14.654246,"93.22,83.62"
2024-05-28_12-55-14.687168,"103.07,55.18"
2024-05-28_12-55-14.719825,"93.78,54.71"
2024-05-28_12-55-14.757335,"97.35,54.83"
2024-05-28_12-55-14.785374,"99.77,59.68"
2024-05-28_12-55-14.818033,"65.16,59.38"
2024-05-28_12-55-14.848365,"83.94,86.81"
2024-05-28_12-55-14.880440,"73.54,68.64"
2024-05-28_12-55-14.912334,"74.99,98.34"
2024-05-28_12-55-14.945091,"92.67,88.02"
2024-05-28_12-55-14.979528,"88.07,75.28"
2024-05-28_12-55-15.013021,"104.98,54.54"
2024-05-28_12-55-15.043343,"86.63,58.04"
2024-05-28_12-55-15.072117,"99.53,47.75"
2024-05-28_12-55-15.105021,"86.35,59.11"
2024-05-28_12-55-15.137668,"56.52,58.14"
2024-05-28_12-55-15.170776,"77.51,71.95"
2024-05-28_12-55-15.206967,"72.18,87.62"
2024-05-28_12-55-15.235931,"82.51,93.42"
2024-05-28_12-55-15.268560,"77.57,89.32"
2024-05-28_12-55-15.301292,"100.45,69.54"
2024-05-28_12-55-15.330087,"98.80,52.58"
2024-05-28_12-55-15.362876,"105.54,57.31"
2024-05-28_12-55-15.395582,"95.91,54.14"
2024-05-28_12-55-15.428363,"80.83,55.47"
2024-05-28_12-55-15.463805,"61.71,57.19"
2024-05-28_12-55-15.493897,"75.93,79.32"
2024-05-28_12-55-15.526694,"68.46,96.47"
2024-05-28_12-55-15.555416,"83.34,89.81"
2024-05-28_12-55-15.588236,"88.28,86.06"
2024-05-28_12-55-15.620933,"91.59,71.66"
2024-05-28_12-55-15.653638,"100.46,64.77"
2024-05-28_12-55-15.686394,"111.61,56.55"
2024-05-28_12-55-15.719172,"96.11,54.81"
2024-05-28_12-55-15.751815,"77.49,55.12"
2024-05-28_12-55-15.780705,"60.04,57.30"
2024-05-28_12-55-15.813430,"81.42,74.93"
2024-05-28_12-55-15.846258,"67.35,103.36"
2024-05-28_12-55-15.879124,"74.98,78.12"
2024-05-28_12-55-15.912308,"84.48,86.31"
2024-05-28_12-55-15.949057,"98.54,57.75"
2024-05-28_12-55-15.996643,"89.67,54.28"
2024-05-28_12-55-16.023237,"93.48,54.81"
2024-05-28_12-55-16.039281,"93.44,53.32"
2024-05-28_12-55-16.071638,"70.15,56.87"
2024-05-28_12-55-16.104227,"70.24,71.55"
2024-05-28_12-55-16.137008,"80.82,81.39"
2024-05-28_12-55-16.169662,"85.51,85.82"
2024-05-28_12-55-16.202354,"87.71,75.71"
2024-05-28_12-55-16.231134,"103.58,77.89"
2024-05-28_12-55-16.263898,"101.89,71.98"
2024-05-28_12-55-16.296654,"88.54,54.08"
2024-05-28_12-55-16.329473,"102.45,52.87"
2024-05-28_12-55-16.362243,"78.24,57.34"
2024-05-28_12-55-16.394935,"66.05,51.62"
2024-05-28_12-55-16.427656,"69.87,80.03"
2024-05-28_12-55-16.456403,"83.29,77.61"
2024-05-28_12-55-16.489191,"99.60,82.54"
2024-05-28_12-55-16.521933,"89.52,79.32"
2024-05-28_12-55-16.554817,"89.03,82.58"
2024-05-28_12-55-16.587664,"103.59,52.75"
2024-05-28_12-55-16.620244,"98.66,51.52"
2024-05-28_12-55-16.652967,"103.34,53.27"
2024-05-28_12-55-16.681727,"80.17,60.63"
2024-05-28_12-55-16.714478,"62.86,58.88"
2024-05-28_12-55-16.747273,"71.69,75.76"
2024-05-28_12-55-16.779983,"79.07,77.57"
2024-05-28_12-55-16.812763,"99.93,88.11"
2024-05-28_12-55-16.845548,"96.29,80.75"
2024-05-28_12-55-16.878182,"82.93,71.48"
2024-05-28_12-55-16.906993,"106.59,52.07"
2024-05-28_12-55-16.939727,"87.27,56.85"
2024-05-28_12-55-16.973586,"99.54,47.06"
2024-05-28_12-55-17.006935,"89.79,58.88"
2024-05-28_12-55-17.043316,"74.04,64.72"
2024-05-28_12-55-17.071150,"74.24,71.14"
2024-05-28_12-55-17.103610,"80.82,89.36"
2024-05-28_12-55-17.132365,"88.88,85.95"
2024-05-28_12-55-17.165205,"80.02,89.58"
2024-05-28_12-55-17.198037,"88.27,55.51"
2024-05-28_12-55-17.230547,"89.54,54.31"
2024-05-28_12-55-17.263482,"84.42,60.22"
2024-05-28_12-55-17.296154,"80.42,56.07"
2024-05-28_12-55-17.328887,"78.08,57.91"
2024-05-28_12-55-17.357577,"64.60,56.75"
2024-05-28_12-55-17.390414,"73.51,72.62"
2024-05-28_12-55-17.423187,"74.07,102.26"
2024-05-28_12-55-17.456091,"90.41,79.54"
2024-05-28_12-55-17.488651,"81.45,75.67"
2024-05-28_12-55-17.521295,"89.81,59.05"
2024-05-28_12-55-17.554016,"89.45,46.96"
2024-05-28_12-55-17.582765,"102.12,56.27"
2024-05-28_12-55-17.615557,"86.99,54.97"
2024-05-28_12-55-17.648562,"76.19,55.18"
2024-05-28_12-55-17.681144,"74.99,96.15"
2024-05-28_12-55-17.713842,"78.86,82.06"
2024-05-28_12-55-17.746631,"80.95,98.90"
2024-05-28_12-55-17.779256,"81.20,80.85"
2024-05-28_12-55-17.808061,"90.81,83.27"
2024-05-28_12-55-17.840812,"93.53,71.20"
2024-05-28_12-55-17.873567,"95.44,69.86"
2024-05-28_12-55-17.906342,"106.53,53.16"
2024-05-28_12-55-17.939086,"99.48,52.20"
2024-05-28_12-55-17.971866,"68.62,56.13"
2024-05-28_12-55-18.004601,"73.81,65.77"
2024-05-28_12-55-18.034674,"81.57,81.09"
2024-05-28_12-55-18.124467,"69.28,97.57"
2024-05-28_12-55-18.166269,"78.45,82.72"
2024-05-28_12-55-18.166958,"84.23,87.97"
2024-05-28_12-55-18.167455,"96.60,60.85"
2024-05-28_12-55-18.197157,"81.18,55.85"
2024-05-28_12-55-18.230110,"67.69,57.59"
2024-05-28_12-55-18.259954,"91.29,58.63"
2024-05-28_12-55-18.291641,"67.82,50.39"
2024-05-28_12-55-18.324124,"70.16,100.35"
2024-05-28_12-55-18.356917,"79.19,81.39"
2024-05-28_12-55-18.389991,"75.34,96.17"
2024-05-28_12-55-18.422432,"79.81,86.75"
2024-05-28_12-55-18.455156,"91.94,86.24"
2024-05-28_12-55-18.483882,"95.78,82.43"
2024-05-28_12-55-18.516686,"88.46,51.64"
2024-05-28_12-55-18.549419,"78.19,54.60"
2024-05-28_12-55-18.582285,"88.68,60.15"
2024-05-28_12-55-18.614930,"62.49,58.22"
2024-05-28_12-55-18.647665,"70.85,77.07"
2024-05-28_12-55-18.680342,"78.88,79.32"
2024-05-28_12-55-18.713065,"99.55,87.84"
2024-05-28_12-55-18.741882,"95.36,81.31"
2024-05-28_12-55-18.774633,"84.72,71.04"
2024-05-28_12-55-18.807388,"105.51,52.33"
2024-05-28_12-55-18.840236,"96.39,56.73"
2024-05-28_12-55-18.872936,"99.61,46.81"
2024-05-28_12-55-18.905723,"82.80,59.90"
2024-05-28_12-55-18.938338,"55.79,59.76"
2024-05-28_12-55-18.967166,"72.83,79.25"
2024-05-28_12-55-18.999955,"84.35,95.80"
2024-05-28_12-55-19.032664,"93.83,86.60"
2024-05-28_12-55-19.065414,"97.48,81.82"
2024-05-28_12-55-19.098222,"94.03,68.74"
2024-05-28_12-55-19.130921,"100.12,52.01"
2024-05-28_12-55-19.163627,"106.49,56.71"
2024-05-28_12-55-19.192382,"97.62,54.32"
2024-05-28_12-55-19.225204,"74.03,56.72"
2024-05-28_12-55-19.257892,"61.01,57.77"
2024-05-28_12-55-19.290711,"76.94,73.31"
2024-05-28_12-55-19.323474,"85.90,88.98"
2024-05-28_12-55-19.356200,"92.59,80.11"
2024-05-28_12-55-19.388881,"93.41,81.83"
2024-05-28_12-55-19.417658,"80.02,71.77"
2024-05-28_12-55-19.493841,"100.19,64.86"
2024-05-28_12-55-19.494781,"93.73,58.24"
2024-05-28_12-55-19.516362,"78.76,56.14"
2024-05-28_12-55-19.549134,"81.00,83.59"
2024-05-28_12-55-19.581586,"73.79,66.61"
2024-05-28_12-55-19.614298,"81.47,83.15"
2024-05-28_12-55-19.642977,"74.01,103.54"
2024-05-28_12-55-19.675732,"92.11,81.89"
2024-05-28_12-55-19.708582,"79.63,74.63"
2024-05-28_12-55-19.741578,"95.15,59.06"
2024-05-28_12-55-19.774117,"93.53,54.06"
2024-05-28_12-55-19.807352,"107.50,53.67"
2024-05-28_12-55-19.839502,"101.51,52.14"
2024-05-28_12-55-19.868268,"68.70,56.20"
2024-05-28_12-55-19.901044,"59.71,57.43"
2024-05-28_12-55-19.933758,"75.34,85.62"
2024-05-28_12-55-19.966488,"83.05,84.33"
2024-05-28_12-55-19.999270,"91.16,79.35"
2024-05-28_12-55-20.032028,"89.69,81.13"
2024-05-28_12-55-20.065614,"110.07,72.01"
2024-05-28_12-55-20.093595,"76.62,54.11"
2024-05-28_12-55-20.126249,"106.80,53.34"
2024-05-28_12-55-20.159042,"98.03,56.86"
2024-05-28_12-55-20.191751,"71.16,50.58"
2024-05-28_12-55-20.224531,"61.60,63.80"
2024-05-28_12-55-20.257310,"79.92,80.08"
2024-05-28_12-55-20.290017,"85.02,84.71"
2024-05-28_12-55-20.318769,"93.00,80.55"
2024-05-28_12-55-20.351516,"91.01,81.78"
2024-05-28_12-55-20.384374,"104.95,67.95"
2024-05-28_12-55-20.417118,"98.00,51.54"
2024-05-28_12-55-20.449793,"99.18,52.91"
2024-05-28_12-55-20.483677,"101.03,57.89"
2024-05-28_12-55-20.515672,"65.06,57.88"
2024-05-28_12-55-20.545170,"85.81,91.17"
2024-05-28_12-55-20.587998,"76.25,68.88"
2024-05-28_12-55-20.609583,"67.13,90.37"
2024-05-28_12-55-20.642579,"92.18,90.21"
2024-05-28_12-55-20.675111,"81.57,73.75"
2024-05-28_12-55-20.707834,"105.49,81.62"
2024-05-28_12-55-20.740518,"86.60,55.86"
2024-05-28_12-55-20.773213,"108.53,46.52"
2024-05-28_12-55-20.802131,"97.59,57.85"
2024-05-28_12-55-20.834861,"58.94,58.39"
2024-05-28_12-55-20.867631,"80.20,93.00"
2024-05-28_12-55-20.900365,"84.16,86.51"
2024-05-28_12-55-20.933121,"79.79,87.95"
2024-05-28_12-55-20.965821,"97.05,89.22"
2024-05-28_12-55-20.994546,"92.37,71.28"
2024-05-28_12-55-21.027345,"101.17,67.88"
2024-05-28_12-55-21.060144,"107.27,56.89"
2024-05-28_12-55-21.092886,"101.31,53.66"
2024-05-28_12-55-21.125666,"91.85,54.68"
2024-05-28_12-55-21.158445,"62.14,56.34"
2024-05-28_12-55-21.191183,"62.87,55.36"
2024-05-28_12-55-21.221827,"80.53,96.91"
2024-05-28_12-55-21.252623,"87.70,83.07"
2024-05-28_12-55-21.285438,"84.86,90.82"
2024-05-28_12-55-21.318167,"89.43,73.53"
2024-05-28_12-55-21.350871,"99.74,63.92"
2024-05-28_12-55-21.383649,"113.39,56.54"
2024-05-28_12-55-21.416339,"95.03,54.23"
2024-05-28_12-55-21.449026,"89.55,53.98"
2024-05-28_12-55-21.477961,"63.16,64.67"
2024-05-28_12-55-21.510669,"81.34,86.58"
2024-05-28_12-55-21.543385,"79.04,94.38"
2024-05-28_12-55-21.576118,"84.24,78.72"
2024-05-28_12-55-21.608941,"91.25,90.81"
2024-05-28_12-55-21.641679,"101.48,73.00"
2024-05-28_12-55-21.674422,"94.96,69.26"
2024-05-28_12-55-21.703242,"98.13,53.04"
2024-05-28_12-55-21.735968,"99.17,52.15"
2024-05-28_12-55-21.768642,"74.48,55.49"
2024-05-28_12-55-21.801385,"59.26,78.31"
2024-05-28_12-55-21.834187,"77.54,89.74"
2024-05-28_12-55-21.866921,"83.12,85.94"
2024-05-28_12-55-21.899586,"91.84,77.45"
2024-05-28_12-55-21.928461,"100.21,81.97"
2024-05-28_12-55-21.961150,"94.85,85.08"
2024-05-28_12-55-21.994008,"86.91,54.11"
2024-05-28_12-55-22.026727,"107.20,53.19"
2024-05-28_12-55-22.059458,"98.17,56.76"
2024-05-28_12-55-22.092275,"76.93,48.41"
2024-05-28_12-55-22.124890,"64.24,77.89"
2024-05-28_12-55-22.153720,"74.74,67.32"
2024-05-28_12-55-22.186439,"86.63,86.01"
2024-05-28_12-55-22.219175,"88.79,86.65"
2024-05-28_12-55-22.274698,"86.63,88.16"
2024-05-28_12-55-22.288075,"82.62,60.73"
2024-05-28_12-55-22.317456,"90.29,54.58"
2024-05-28_12-55-22.350274,"87.56,53.28"
2024-05-28_12-55-22.378979,"96.92,55.44"
2024-05-28_12-55-22.411730,"75.29,56.24"
2024-05-28_12-55-22.444462,"70.00,57.04"
2024-05-28_12-55-22.477251,"77.67,58.73"
2024-05-28_12-55-22.509996,"89.95,85.52"
2024-05-28_12-55-22.543493,"86.17,94.00"
2024-05-28_12-55-22.575426,"83.73,80.13"
2024-05-28_12-55-22.604172,"92.42,78.89"
2024-05-28_12-55-22.636967,"94.90,71.69"
2024-05-28_12-55-22.669774,"89.62,46.25"
2024-05-28_12-55-22.702539,"110.17,56.92"
2024-05-28_12-55-22.735299,"67.67,56.41"
2024-05-28_12-55-22.768038,"69.72,73.64"
2024-05-28_12-55-22.800853,"83.43,79.28"
2024-05-28_12-55-22.829535,"82.37,90.19"
2024-05-28_12-55-22.862377,"73.71,90.94"
2024-05-28_12-55-22.895147,"82.30,86.64"
2024-05-28_12-55-22.927810,"92.50,83.16"
2024-05-28_12-55-22.960492,"94.56,56.29"
2024-05-28_12-55-22.993349,"95.84,53.82"
2024-05-28_12-55-23.026031,"107.57,53.83"
2024-05-28_12-55-23.054683,"76.24,54.07"
2024-05-28_12-55-23.087507,"65.22,57.20"
2024-05-28_12-55-23.120237,"83.85,77.79"
2024-05-28_12-55-23.153060,"81.44,90.59"
2024-05-28_12-55-23.185771,"98.79,80.80"
2024-05-28_12-55-23.218550,"82.64,77.51"
2024-05-28_12-55-23.251262,"95.51,77.54"
2024-05-28_12-55-23.283994,"102.20,71.87"
2024-05-28_12-55-23.312750,"89.42,54.05"
2024-05-28_12-55-23.345519,"102.77,52.94"
2024-05-28_12-55-23.378282,"80.30,56.88"
2024-05-28_12-55-23.411117,"65.03,52.05"
2024-05-28_12-55-23.443809,"66.96,82.16"
2024-05-28_12-55-23.477234,"81.64,80.15"
2024-05-28_12-55-23.505391,"99.55,84.43"
2024-05-28_12-55-23.538059,"93.54,74.53"
2024-05-28_12-55-23.570800,"96.36,81.57"
2024-05-28_12-55-23.603597,"95.26,81.77"
2024-05-28_12-55-23.636301,"96.79,51.19"
2024-05-28_12-55-23.669100,"96.76,52.47"
2024-05-28_12-55-23.701778,"87.76,58.27"
2024-05-28_12-55-23.734554,"61.27,58.79"
2024-05-28_12-55-23.763326,"70.08,94.95"
2024-05-28_12-55-23.796120,"77.33,80.20"
2024-05-28_12-55-23.828860,"83.06,92.22"
2024-05-28_12-55-23.861572,"98.23,78.54"
2024-05-28_12-55-23.894332,"87.30,71.70"
2024-05-28_12-55-23.927096,"104.89,67.92"
2024-05-28_12-55-23.959782,"96.99,56.44"
2024-05-28_12-55-23.988616,"107.50,46.40"
2024-05-28_12-55-24.021509,"96.82,57.64"
2024-05-28_12-55-24.054141,"57.40,58.29"
2024-05-28_12-55-24.086879,"64.91,55.40"
2024-05-28_12-55-24.119610,"83.38,86.25"
2024-05-28_12-55-24.152342,"90.13,79.01"
2024-05-28_12-55-24.185023,"96.41,85.61"
2024-05-28_12-55-24.213819,"94.72,72.31"
2024-05-28_12-55-24.246594,"88.63,80.49"
2024-05-28_12-55-24.279341,"96.35,56.09"
2024-05-28_12-55-24.312120,"95.56,53.54"
2024-05-28_12-55-24.344894,"103.85,53.59"
2024-05-28_12-55-24.377617,"72.87,54.69"
2024-05-28_12-55-24.410299,"64.58,56.87"
2024-05-28_12-55-24.439165,"84.81,78.22"
2024-05-28_12-55-24.471862,"80.37,89.05"
2024-05-28_12-55-24.504602,"85.57,81.57"
2024-05-28_12-55-24.537410,"86.31,78.71"
2024-05-28_12-55-24.570158,"97.19,77.30"
2024-05-28_12-55-24.602883,"111.26,56.08"
2024-05-28_12-55-24.635631,"87.97,54.17"
2024-05-28_12-55-24.664356,"104.82,53.13"
2024-05-28_12-55-24.697522,"87.83,56.82"
2024-05-28_12-55-24.729885,"66.63,51.71"
2024-05-28_12-55-24.762634,"70.85,92.19"
2024-05-28_12-55-24.795441,"81.92,79.53"
2024-05-28_12-55-24.828150,"87.08,88.71"
2024-05-28_12-55-24.860863,"94.17,83.91"
2024-05-28_12-55-24.889748,"94.21,82.13"
2024-05-28_12-55-24.922461,"98.31,53.94"
2024-05-28_12-55-24.955180,"97.02,51.37"
2024-05-28_12-55-24.988673,"89.00,52.82"
2024-05-28_12-55-25.020718,"97.77,58.19"
2024-05-28_12-55-25.053449,"66.25,57.29"
2024-05-28_12-55-25.086158,"77.15,84.89"
2024-05-28_12-55-25.114959,"76.55,80.08"
2024-05-28_12-55-25.147669,"92.29,97.84"
2024-05-28_12-55-25.180425,"95.60,86.45"
2024-05-28_12-55-25.213263,"77.30,74.28"
2024-05-28_12-55-25.245951,"104.16,67.58"
2024-05-28_12-55-25.278685,"95.67,56.52"
2024-05-28_12-55-25.311446,"100.75,46.68"
2024-05-28_12-55-25.340149,"110.27,56.25"
2024-05-28_12-55-25.372951,"66.84,56.62"
2024-05-28_12-55-25.405864,"70.94,56.25"
2024-05-28_12-55-25.438535,"68.70,80.08"
2024-05-28_12-55-25.471346,"80.26,91.43"
2024-05-28_12-55-25.504466,"88.09,91.68"
2024-05-28_12-55-25.547733,"72.54,81.80"
2024-05-28_12-55-25.567809,"81.82,63.88"
2024-05-28_12-55-25.598268,"95.09,59.77"
2024-05-28_12-55-25.631005,"93.84,54.11"
2024-05-28_12-55-25.663768,"97.90,53.27"
2024-05-28_12-55-25.696542,"94.02,51.79"
2024-05-28_12-55-25.729243,"70.81,55.31"
2024-05-28_12-55-25.761952,"60.88,76.87"
2024-05-28_12-55-25.790664,"76.73,91.59"
2024-05-28_12-55-25.823448,"84.50,85.64"
2024-05-28_12-55-25.856272,"81.23,79.37"
2024-05-28_12-55-25.889054,"98.12,79.07"
2024-05-28_12-55-25.921789,"101.54,85.51"
2024-05-28_12-55-25.954529,"88.68,54.04"
2024-05-28_12-55-25.987255,"108.46,52.80"
2024-05-28_12-55-26.016013,"96.55,57.13"
2024-05-28_12-55-26.048777,"87.32,47.76"
2024-05-28_12-55-26.081508,"71.18,61.35"
2024-05-28_12-55-26.114225,"67.04,81.03"
2024-05-28_12-55-26.147014,"75.38,91.12"
2024-05-28_12-55-26.179775,"84.49,87.59"
2024-05-28_12-55-26.214504,"83.68,81.03"
2024-05-28_12-55-26.241394,"93.16,83.66"
2024-05-28_12-55-26.274075,"92.54,52.19"
2024-05-28_12-55-26.306774,"98.17,52.44"
2024-05-28_12-55-26.339640,"105.15,56.65"
2024-05-28_12-55-26.372287,"102.49,53.97"
2024-05-28_12-55-26.405015,"81.36,54.14"
2024-05-28_12-55-26.437733,"60.97,56.55"
2024-05-28_12-55-26.466535,"72.93,93.60"
2024-05-28_12-55-26.499404,"84.04,91.32"
2024-05-28_12-55-26.532149,"82.28,76.64"
2024-05-28_12-55-26.564941,"95.84,79.86"
2024-05-28_12-55-26.597605,"92.75,73.92"
2024-05-28_12-55-26.630378,"97.82,64.83"
2024-05-28_12-55-26.663048,"112.15,57.12"
2024-05-28_12-55-26.691800,"88.57,54.18"
2024-05-28_12-55-26.724583,"99.38,53.19"
2024-05-28_12-55-26.757314,"66.26,59.12"
2024-05-28_12-55-26.790094,"74.57,77.55"
2024-05-28_12-55-26.822845,"72.89,92.34"
2024-05-28_12-55-26.855601,"81.94,86.82"
2024-05-28_12-55-26.888308,"98.85,81.17"
2024-05-28_12-55-26.917112,"91.68,79.71"
2024-05-28_12-55-26.949849,"86.80,69.56"
2024-05-28_12-55-26.982589,"103.11,53.24"
2024-05-28_12-55-27.015402,"97.59,51.45"
2024-05-28_12-55-27.048789,"97.02,53.48"
2024-05-28_12-55-27.080984,"90.31,58.86"
2024-05-28_12-55-27.113528,"65.14,57.47"
2024-05-28_12-55-27.146275,"70.98,84.52"
2024-05-28_12-55-27.175126,"81.90,77.91"
2024-05-28_12-55-27.207859,"84.81,94.68"
2024-05-28_12-55-27.240585,"94.32,87.53"
2024-05-28_12-55-27.273657,"80.52,73.86"
2024-05-28_12-55-27.306204,"104.85,67.56"
2024-05-28_12-55-27.338859,"98.35,56.62"
2024-05-28_12-55-27.371523,"81.37,47.45"
2024-05-28_12-55-27.400336,"109.26,56.60"
2024-05-28_12-55-27.433141,"67.54,56.94"
2024-05-28_12-55-27.465920,"67.76,74.24"
2024-05-28_12-55-27.498607,"83.40,70.23"
2024-05-28_12-55-27.531417,"85.45,89.94"
2024-05-28_12-55-27.564506,"95.15,87.30"
2024-05-28_12-55-27.596876,"91.84,76.66"
2024-05-28_12-55-27.625606,"91.94,81.38"
2024-05-28_12-55-27.658376,"105.14,56.69"
2024-05-28_12-55-27.691162,"95.00,53.51"
2024-05-28_12-55-27.723957,"106.47,53.32"
2024-05-28_12-55-27.756646,"98.58,51.99"
2024-05-28_12-55-27.789428,"70.87,56.19"
2024-05-28_12-55-27.822133,"59.40,58.14"
2024-05-28_12-55-27.851385,"75.61,86.42"
2024-05-28_12-55-27.883720,"80.56,87.51"
2024-05-28_12-55-27.916516,"89.00,80.17"
2024-05-28_12-55-27.949301,"86.15,88.03"
2024-05-28_12-55-27.982048,"98.28,60.71"
2024-05-28_12-55-28.014693,"88.03,54.78"
2024-05-28_12-55-28.047365,"98.36,53.35"
2024-05-28_12-55-28.076114,"102.27,56.50"
2024-05-28_12-55-28.108873,"85.98,47.83"
2024-05-28_12-55-28.141663,"71.95,61.49"
2024-05-28_12-55-28.174589,"66.35,80.94"
2024-05-28_12-55-28.207192,"78.23,90.97"
2024-05-28_12-55-28.240033,"86.45,88.12"
2024-05-28_12-55-28.272626,"83.41,89.78"
2024-05-28_12-55-28.301385,"99.35,80.97"
2024-05-28_12-55-28.334219,"96.19,69.15"
2024-05-28_12-55-28.366988,"98.88,52.38"
2024-05-28_12-55-28.399691,"107.50,56.92"
2024-05-28_12-55-28.432485,"90.98,54.57"
2024-05-28_12-55-28.465249,"78.77,55.77"
2024-05-28_12-55-28.497967,"61.29,57.81"
2024-05-28_12-55-28.526656,"72.81,96.14"
2024-05-28_12-55-28.559437,"85.00,92.38"
2024-05-28_12-55-28.592201,"79.76,82.02"
2024-05-28_12-55-28.625011,"92.52,79.50"
2024-05-28_12-55-28.657757,"91.08,73.34"
2024-05-28_12-55-28.690507,"99.03,64.69"
2024-05-28_12-55-28.723215,"102.44,56.60"
2024-05-28_12-55-28.751907,"87.74,54.57"
2024-05-28_12-55-28.784719,"102.70,54.01"
2024-05-28_12-55-28.817472,"73.05,58.93"
2024-05-28_12-55-28.850244,"66.09,52.67"
2024-05-28_12-55-28.883555,"69.58,84.35"
2024-05-28_12-55-28.917405,"75.09,92.91"
2024-05-28_12-55-28.973322,"80.73,93.97"
2024-05-28_12-55-28.981969,"73.67,91.97"
2024-05-28_12-55-29.010718,"91.94,73.16"
2024-05-28_12-55-29.043019,"87.55,58.89"
2024-05-28_12-55-29.075713,"93.53,52.94"
2024-05-28_12-55-29.108576,"83.28,55.23"
2024-05-28_12-55-29.141264,"100.86,58.32"
2024-05-28_12-55-29.173853,"69.14,57.51"
2024-05-28_12-55-29.202722,"67.46,81.84"
2024-05-28_12-55-29.235363,"76.89,68.77"
2024-05-28_12-55-29.268064,"84.96,91.81"
2024-05-28_12-55-29.300849,"79.77,93.94"
2024-05-28_12-55-29.333620,"75.16,82.79"
2024-05-28_12-55-29.366372,"96.98,82.49"
2024-05-28_12-55-29.399012,"94.66,56.70"
2024-05-28_12-55-29.431734,"100.23,47.24"
2024-05-28_12-55-29.460525,"112.35,56.72"
2024-05-28_12-55-29.493350,"96.39,55.06"
2024-05-28_12-55-29.526113,"84.26,55.69"
2024-05-28_12-55-29.558839,"62.36,69.25"
2024-05-28_12-55-29.591660,"78.14,85.46"
2024-05-28_12-55-29.624295,"80.87,92.51"
2024-05-28_12-55-29.656971,"81.75,81.30"
2024-05-28_12-55-29.685828,"89.56,90.03"
2024-05-28_12-55-29.718577,"96.47,73.73"
2024-05-28_12-55-29.751306,"93.86,69.89"
2024-05-28_12-55-29.784071,"108.24,53.01"
2024-05-28_12-55-29.817513,"97.97,51.36"
2024-05-28_12-55-29.849543,"99.73,52.84"
2024-05-28_12-55-29.882221,"82.30,59.62"
2024-05-28_12-55-29.911062,"61.75,59.27"
2024-05-28_12-55-29.943831,"71.55,100.08"
2024-05-28_12-55-29.976569,"80.50,79.16"
2024-05-28_12-55-30.009336,"94.68,97.25"
2024-05-28_12-55-30.042149,"92.40,84.70"
2024-05-28_12-55-30.074839,"76.23,75.99"
2024-05-28_12-55-30.107540,"104.99,81.39"
2024-05-28_12-55-30.136305,"97.39,56.75"
2024-05-28_12-55-30.169069,"99.35,47.13"
2024-05-28_12-55-30.201869,"114.60,56.68"
2024-05-28_12-55-30.234611,"75.65,56.71"
2024-05-28_12-55-30.268179,"72.58,57.12"
2024-05-28_12-55-30.300519,"73.22,64.75"
2024-05-28_12-55-30.332969,"75.35,73.37"
2024-05-28_12-55-30.361647,"64.84,90.97"
2024-05-28_12-55-30.394385,"77.03,78.19"
2024-05-28_12-55-30.427170,"99.23,83.06"
2024-05-28_12-55-30.459919,"99.76,72.09"
2024-05-28_12-55-30.494564,"95.10,53.58"
2024-05-28_12-55-30.525377,"89.64,55.15"
2024-05-28_12-55-30.558873,"86.99,53.15"
2024-05-28_12-55-30.587882,"89.55,55.65"
2024-05-28_12-55-30.619649,"79.23,59.68"
2024-05-28_12-55-30.652394,"74.19,85.25"
2024-05-28_12-55-30.685200,"72.96,83.29"
2024-05-28_12-55-30.718191,"78.62,78.22"
2024-05-28_12-55-30.750745,"91.01,92.16"
2024-05-28_12-55-30.783844,"95.94,86.64"
2024-05-28_12-55-30.812192,"90.58,71.71"
2024-05-28_12-55-30.844916,"105.01,51.97"
2024-05-28_12-55-30.877672,"96.68,56.96"
2024-05-28_12-55-30.910402,"100.02,47.22"
2024-05-28_12-55-30.943243,"106.30,57.14"
2024-05-28_12-55-30.975922,"67.97,56.67"
2024-05-28_12-55-31.008636,"70.46,57.43"
2024-05-28_12-55-31.037368,"69.97,72.11"
2024-05-28_12-55-31.070226,"80.04,80.65"
2024-05-28_12-55-31.102980,"81.45,94.41"
2024-05-28_12-55-31.135812,"80.79,83.62"
2024-05-28_12-55-31.169365,"81.51,87.88"
2024-05-28_12-55-31.201215,"107.34,58.02"
2024-05-28_12-55-31.233889,"94.65,53.82"
2024-05-28_12-55-31.262639,"98.83,53.44"
2024-05-28_12-55-31.295436,"97.03,51.21"
2024-05-28_12-55-31.328182,"91.41,53.34"
2024-05-28_12-55-31.361005,"72.80,61.53"
2024-05-28_12-55-31.393721,"62.95,59.17"
2024-05-28_12-55-31.426499,"71.65,75.67"
2024-05-28_12-55-31.459185,"80.37,78.61"
2024-05-28_12-55-31.487925,"87.49,89.34"
2024-05-28_12-55-31.520694,"97.52,89.65"
2024-05-28_12-55-31.553465,"80.53,73.91"
2024-05-28_12-55-31.586225,"105.39,68.08"
2024-05-28_12-55-31.619013,"96.44,56.53"
2024-05-28_12-55-31.651765,"99.89,47.28"
2024-05-28_12-55-31.684482,"112.52,57.17"
2024-05-28_12-55-31.713198,"74.68,58.76"
2024-05-28_12-55-31.745988,"70.67,58.70"
2024-05-28_12-55-31.778718,"71.64,75.33"
2024-05-28_12-55-31.811474,"80.45,82.36"
2024-05-28_12-55-31.844245,"81.93,96.28"
2024-05-28_12-55-31.877027,"83.87,84.44"
2024-05-28_12-55-31.909707,"94.16,83.71"
2024-05-28_12-55-31.938484,"101.39,72.30"
2024-05-28_12-55-31.971226,"94.87,54.12"
2024-05-28_12-55-32.004003,"109.85,55.02"
2024-05-28_12-55-32.036801,"96.89,51.87"
2024-05-28_12-55-32.069547,"86.92,54.65"
2024-05-28_12-55-32.102452,"70.92,62.37"
2024-05-28_12-55-32.134951,"75.08,76.29"
2024-05-28_12-55-32.163775,"71.77,80.78"
2024-05-28_12-55-32.196509,"77.52,88.89"
2024-05-28_12-55-32.229247,"93.77,92.13"
2024-05-28_12-55-32.262073,"99.86,84.44"
2024-05-28_12-55-32.294805,"86.64,74.24"
2024-05-28_12-55-32.327548,"102.24,54.68"
2024-05-28_12-55-32.360277,"97.23,56.47"
2024-05-28_12-55-32.389063,"90.55,47.73"
2024-05-28_12-55-32.438695,"108.55,61.14"
2024-05-28_12-55-32.454615,"74.06,57.17"
2024-05-28_12-55-32.487575,"78.81,95.59"
2024-05-28_12-55-32.520087,"84.64,66.54"
2024-05-28_12-55-32.552904,"78.63,84.74"
2024-05-28_12-55-32.585511,"72.88,100.17"
2024-05-28_12-55-32.614444,"89.80,79.25"
2024-05-28_12-55-32.647156,"83.77,88.78"
2024-05-28_12-55-32.679815,"107.83,74.87"
2024-05-28_12-55-32.712548,"94.93,54.24"
2024-05-28_12-55-32.745283,"108.14,54.58"
2024-05-28_12-55-32.778063,"89.89,52.75"
2024-05-28_12-55-32.810813,"90.23,55.90"
2024-05-28_12-55-32.839564,"70.56,63.56"
2024-05-28_12-55-32.873914,"77.78,85.11"
2024-05-28_12-55-32.905633,"72.60,83.92"
2024-05-28_12-55-32.938147,"73.86,78.24"
2024-05-28_12-55-32.975134,"79.52,90.01"
2024-05-28_12-55-33.004399,"92.97,93.34"
2024-05-28_12-55-33.036201,"78.53,77.78"
2024-05-28_12-55-33.096342,"87.94,59.93"
2024-05-28_12-55-33.104782,"91.06,59.44"
2024-05-28_12-55-33.131077,"92.45,51.69"
2024-05-28_12-55-33.169865,"103.17,59.14"
2024-05-28_12-55-33.200481,"74.84,57.30"
2024-05-28_12-55-33.228645,"79.18,63.36"
2024-05-28_12-55-33.261337,"73.58,62.31"
2024-05-28_12-55-33.296602,"78.19,82.71"
2024-05-28_12-55-33.322817,"66.24,81.09"
2024-05-28_12-55-33.355806,"72.99,88.75"
2024-05-28_12-55-33.388369,"65.48,82.93"
2024-05-28_12-55-33.421172,"101.98,63.36"
2024-05-28_12-55-33.453908,"93.65,53.64"
2024-05-28_12-55-33.486600,"86.72,52.91"
2024-05-28_12-55-33.519333,"98.02,51.06"
2024-05-28_12-55-33.548173,"104.11,52.93"
2024-05-28_12-55-33.580902,"88.82,58.62"
2024-05-28_12-55-33.613637,"62.07,57.95"
2024-05-28_12-55-33.646422,"75.27,55.84"
2024-05-28_12-55-33.679186,"75.24,79.44"
2024-05-28_12-55-33.711912,"92.00,86.71"
2024-05-28_12-55-33.744584,"90.22,89.74"
2024-05-28_12-55-33.773549,"82.12,72.83"
2024-05-28_12-55-33.806240,"97.48,81.82"
2024-05-28_12-55-33.838931,"94.26,56.34"
2024-05-28_12-55-33.871676,"100.08,46.57"
2024-05-28_12-55-33.904428,"102.40,56.39"
2024-05-28_12-55-33.937147,"84.93,54.47"
2024-05-28_12-55-33.969866,"82.37,54.27"
2024-05-28_12-55-33.998711,"61.50,60.98"
2024-05-28_12-55-34.031725,"88.80,58.35"
2024-05-28_12-55-34.064230,"68.43,77.17"
2024-05-28_12-55-34.097039,"77.92,90.81"
2024-05-28_12-55-34.129812,"100.99,80.38"
2024-05-28_12-55-34.162464,"84.97,79.14"
2024-05-28_12-55-34.195150,"97.86,82.82"
2024-05-28_12-55-34.223939,"106.19,68.62"
2024-05-28_12-55-34.256695,"97.97,51.06"
2024-05-28_12-55-34.289419,"100.63,52.79"
2024-05-28_12-55-34.322243,"106.11,56.18"
2024-05-28_12-55-34.355335,"78.93,54.98"
2024-05-28_12-55-34.387704,"69.89,56.24"
2024-05-28_12-55-34.421234,"70.59,83.77"
2024-05-28_12-55-34.450914,"79.08,84.90"
2024-05-28_12-55-34.482218,"81.50,98.04"
2024-05-28_12-55-34.514739,"86.23,79.31"
2024-05-28_12-55-34.547455,"95.25,84.17"
2024-05-28_12-55-34.580212,"84.12,71.82"
2024-05-28_12-55-34.612968,"99.42,64.22"
2024-05-28_12-55-34.645705,"112.91,55.93"
2024-05-28_12-55-34.674428,"89.16,54.29"
2024-05-28_12-55-34.707288,"112.30,53.31"
2024-05-28_12-55-34.740010,"85.75,56.78"
2024-05-28_12-55-34.772772,"67.05,50.86"
2024-05-28_12-55-34.805682,"61.67,60.54"
2024-05-28_12-55-34.838298,"76.25,81.80"
2024-05-28_12-55-34.871190,"71.21,94.28"
2024-05-28_12-55-34.899750,"83.54,88.23"
2024-05-28_12-55-34.932539,"85.91,86.11"
2024-05-28_12-55-34.965271,"90.97,80.65"
2024-05-28_12-55-34.998061,"92.24,68.82"
2024-05-28_12-55-35.031143,"99.43,51.81"
2024-05-28_12-55-35.063505,"105.98,57.22"
2024-05-28_12-55-35.096220,"101.90,53.56"
2024-05-28_12-55-35.124968,"99.31,53.44"
2024-05-28_12-55-35.157701,"69.14,54.90"
2024-05-28_12-55-35.190569,"64.57,73.62"
2024-05-28_12-55-35.223301,"81.12,78.57"
2024-05-28_12-55-35.256220,"79.42,80.10"
2024-05-28_12-55-35.292913,"83.56,90.12"
2024-05-28_12-55-35.321799,"77.77,84.97"
2024-05-28_12-55-35.350620,"94.94,84.62"
2024-05-28_12-55-35.383421,"95.89,59.81"
2024-05-28_12-55-35.426246,"80.21,55.64"
2024-05-28_12-55-35.451535,"84.11,56.05"
2024-05-28_12-55-35.482422,"88.41,59.03"
2024-05-28_12-55-35.514180,"84.95,50.53"
2024-05-28_12-55-35.548488,"78.84,59.65"
2024-05-28_12-55-35.575881,"59.22,57.33"
2024-05-28_12-55-35.608324,"78.98,71.85"
2024-05-28_12-55-35.641811,"73.65,79.82"
2024-05-28_12-55-35.673864,"82.85,89.59"
2024-05-28_12-55-35.706606,"93.02,82.96"
2024-05-28_12-55-35.740216,"92.29,69.71"
2024-05-28_12-55-35.772030,"96.69,80.43"
2024-05-28_12-55-35.804732,"104.78,56.11"
2024-05-28_12-55-35.833585,"94.50,53.41"
2024-05-28_12-55-35.866487,"105.88,53.48"
2024-05-28_12-55-35.899116,"98.75,52.39"
2024-05-28_12-55-35.931901,"70.82,54.52"
2024-05-28_12-55-35.964781,"65.86,74.83"
2024-05-28_12-55-35.997289,"78.73,81.45"
2024-05-28_12-55-36.026104,"76.94,87.67"
2024-05-28_12-55-36.058880,"81.46,81.89"
2024-05-28_12-55-36.091588,"84.05,88.66"
2024-05-28_12-55-36.124337,"106.66,81.65"
2024-05-28_12-55-36.157084,"82.32,70.73"
2024-05-28_12-55-36.189888,"107.37,68.29"
2024-05-28_12-55-36.222559,"97.73,56.63"
2024-05-28_12-55-36.251359,"89.16,46.55"
2024-05-28_12-55-36.284167,"109.52,55.82"
2024-05-28_12-55-36.316975,"68.26,56.48"
2024-05-28_12-55-36.349661,"70.83,56.26"
2024-05-28_12-55-36.382422,"72.60,91.23"
2024-05-28_12-55-36.415242,"82.35,76.39"
2024-05-28_12-55-36.447848,"80.80,99.20"
2024-05-28_12-55-36.481903,"92.37,76.04"
2024-05-28_12-55-36.509443,"90.54,81.43"
2024-05-28_12-55-36.542152,"92.16,75.54"
2024-05-28_12-55-36.574873,"81.24,70.22"
2024-05-28_12-55-36.607690,"97.05,52.18"
2024-05-28_12-55-36.640424,"97.78,51.31"
2024-05-28_12-55-36.673255,"96.59,52.73"
2024-05-28_12-55-36.705859,"101.58,57.53"
2024-05-28_12-55-36.734667,"63.73,56.87"
2024-05-28_12-55-36.767417,"67.53,57.09"
2024-05-28_12-55-36.800171,"77.83,66.45"
2024-05-28_12-55-36.832966,"90.57,86.72"
2024-05-28_12-55-36.865722,"95.79,98.59"
2024-05-28_12-55-36.898417,"80.74,73.10"
2024-05-28_12-55-36.931125,"97.67,80.92"
2024-05-28_12-55-36.960121,"89.44,72.38"
2024-05-28_12-55-36.992803,"97.43,46.56"
2024-05-28_12-55-37.025392,"113.39,56.28"
2024-05-28_12-55-37.058257,"88.15,54.01"
2024-05-28_12-55-37.091073,"104.48,52.94"
2024-05-28_12-55-37.123746,"78.38,58.14"
2024-05-28_12-55-37.156369,"65.12,50.80"
2024-05-28_12-55-37.185146,"69.96,92.37"
2024-05-28_12-55-37.217957,"82.36,78.85"
2024-05-28_12-55-37.250681,"85.40,93.43"
2024-05-28_12-55-37.283437,"100.25,78.25"
2024-05-28_12-55-37.316255,"90.76,79.83"
2024-05-28_12-55-37.348998,"96.00,67.30"
2024-05-28_12-55-37.381669,"94.70,51.56"
2024-05-28_12-55-37.410423,"96.19,53.26"
2024-05-28_12-55-37.443243,"93.94,55.94"
2024-05-28_12-55-37.475986,"104.71,54.13"
2024-05-28_12-55-37.508773,"86.29,53.96"
2024-05-28_12-55-37.541435,"62.03,56.51"
2024-05-28_12-55-37.574382,"62.47,76.93"
2024-05-28_12-55-37.607044,"80.82,95.36"
2024-05-28_12-55-37.635706,"81.24,88.70"
2024-05-28_12-55-37.668451,"99.55,80.68"
2024-05-28_12-55-37.701270,"88.49,75.85"
2024-05-28_12-55-37.734030,"95.68,79.20"
2024-05-28_12-55-37.766776,"107.27,56.29"
2024-05-28_12-55-37.799530,"87.60,54.19"
2024-05-28_12-55-37.832180,"108.18,52.82"
2024-05-28_12-55-37.860947,"94.12,56.51"
2024-05-28_12-55-37.893753,"98.24,46.28"
2024-05-28_12-55-37.926492,"78.00,60.09"
2024-05-28_12-55-37.959272,"55.90,59.03"
2024-05-28_12-55-37.992022,"73.71,90.91"
2024-05-28_12-55-38.024744,"82.43,86.19"
2024-05-28_12-55-38.057434,"89.34,82.63"
2024-05-28_12-55-38.086263,"86.88,83.91"
2024-05-28_12-55-38.119060,"90.91,76.44"
2024-05-28_12-55-38.151807,"97.32,81.29"
2024-05-28_12-55-38.184536,"102.21,72.13"
2024-05-28_12-55-38.217271,"83.76,53.19"
2024-05-28_12-55-38.250023,"108.07,53.21"
2024-05-28_12-55-38.282749,"102.17,51.49"
2024-05-28_12-55-38.311470,"89.13,51.93"
2024-05-28_12-55-38.344318,"70.43,60.55"
2024-05-28_12-55-38.377058,"62.17,58.82"
2024-05-28_12-55-38.409782,"66.81,75.06"
2024-05-28_12-55-38.442541,"80.25,78.15"
2024-05-28_12-55-38.475296,"98.68,92.62"
2024-05-28_12-55-38.508008,"96.21,83.05"
2024-05-28_12-55-38.536763,"88.96,73.15"
2024-05-28_12-55-38.569502,"103.27,80.09"
2024-05-28_12-55-38.602295,"94.58,56.03"
2024-05-28_12-55-38.635051,"99.03,46.57"
2024-05-28_12-55-38.667814,"112.82,56.38"
2024-05-28_12-55-38.700563,"96.71,54.32"
2024-05-28_12-55-38.733270,"83.69,53.79"
2024-05-28_12-55-38.762000,"60.27,59.72"
2024-05-28_12-55-38.794781,"73.24,56.02"
2024-05-28_12-55-38.827532,"72.41,94.86"
2024-05-28_12-55-38.860334,"81.98,85.48"
2024-05-28_12-55-38.893154,"85.42,81.27"
2024-05-28_12-55-38.925865,"87.34,83.38"
2024-05-28_12-55-38.958544,"88.27,82.86"
2024-05-28_12-55-38.987376,"96.99,68.42"
2024-05-28_12-55-39.020079,"86.88,51.41"
2024-05-28_12-55-39.054150,"99.81,52.87"
2024-05-28_12-55-39.085712,"98.09,56.71"
2024-05-28_12-55-39.118399,"70.44,56.36"
2024-05-28_12-55-39.151121,"67.48,57.47"
2024-05-28_12-55-39.183825,"80.35,59.18"
2024-05-28_12-55-39.212588,"86.07,87.61"
2024-05-28_12-55-39.245299,"84.13,93.28"
2024-05-28_12-55-39.278100,"78.51,81.27"
2024-05-28_12-55-39.310854,"95.94,80.72"
2024-05-28_12-55-39.343611,"90.15,71.63"
2024-05-28_12-55-39.376448,"98.97,64.72"
2024-05-28_12-55-39.409131,"112.29,56.77"
2024-05-28_12-55-39.437830,"88.44,54.47"
2024-05-28_12-55-39.470574,"106.37,53.43"
2024-05-28_12-55-39.503358,"82.39,56.83"
2024-05-28_12-55-39.536115,"65.24,51.85"
2024-05-28_12-55-39.568965,"74.66,62.65"
2024-05-28_12-55-39.601654,"75.07,80.29"
2024-05-28_12-55-39.634390,"85.27,85.61"
2024-05-28_12-55-39.663080,"89.15,82.30"
2024-05-28_12-55-39.695848,"84.15,89.34"
2024-05-28_12-55-39.728639,"107.37,79.85"
2024-05-28_12-55-39.761366,"94.58,68.50"
2024-05-28_12-55-39.794162,"101.34,51.48"
2024-05-28_12-55-39.826953,"106.65,56.54"
2024-05-28_12-55-39.859664,"101.82,53.50"
2024-05-28_12-55-39.888389,"96.15,53.49"
2024-05-28_12-55-39.921143,"66.32,54.61"
2024-05-28_12-55-39.953976,"63.73,73.31"
2024-05-28_12-55-39.986667,"81.53,79.39"
2024-05-28_12-55-40.020935,"80.72,81.16"
2024-05-28_12-55-40.052190,"93.35,84.60"
2024-05-28_12-55-40.084975,"81.40,78.30"
2024-05-28_12-55-40.117582,"91.45,79.71"
2024-05-28_12-55-40.146407,"107.25,84.51"
2024-05-28_12-55-40.179157,"75.80,53.99"
2024-05-28_12-55-40.211971,"109.03,52.91"
2024-05-28_12-55-40.244694,"95.75,56.26"
2024-05-28_12-55-40.277508,"96.39,46.64"
2024-05-28_12-55-40.310210,"79.45,59.34"
2024-05-28_12-55-40.342968,"55.37,58.69"
2024-05-28_12-55-40.371750,"70.65,84.92"
2024-05-28_12-55-40.404449,"85.06,87.05"
2024-05-28_12-55-40.437316,"84.00,89.94"
2024-05-28_12-55-40.470186,"85.41,87.49"
2024-05-28_12-55-40.503986,"86.06,75.43"
2024-05-28_12-55-40.535442,"86.45,74.84"
2024-05-28_12-55-40.568151,"97.27,59.43"
2024-05-28_12-55-40.599755,"95.49,53.75"
2024-05-28_12-55-40.629948,"107.80,54.16"
2024-05-28_12-55-40.662572,"100.53,51.61"
2024-05-28_12-55-40.695367,"77.53,55.15"
2024-05-28_12-55-40.728038,"69.30,60.87"
2024-05-28_12-55-40.760728,"75.07,87.88"
2024-05-28_12-55-40.793392,"67.92,74.63"
2024-05-28_12-55-40.822212,"81.17,77.67"
2024-05-28_12-55-40.854945,"97.64,89.90"
2024-05-28_12-55-40.887723,"96.48,86.78"
2024-05-28_12-55-40.920488,"88.02,73.57"
2024-05-28_12-55-40.953266,"103.75,67.33"
2024-05-28_12-55-40.985985,"94.83,56.08"
2024-05-28_12-55-41.018696,"89.49,46.64"
2024-05-28_12-55-41.047482,"110.07,56.39"
2024-05-28_12-55-41.080262,"90.62,55.05"
2024-05-28_12-55-41.113026,"77.32,55.58"
2024-05-28_12-55-41.145856,"60.62,65.27"
2024-05-28_12-55-41.183122,"80.48,84.22"
2024-05-28_12-55-41.221424,"71.40,98.55"
2024-05-28_12-55-41.254475,"88.16,89.98"
2024-05-28_12-55-41.276210,"75.81,87.01"
2024-05-28_12-55-41.312557,"88.50,80.20"
2024-05-28_12-55-41.338338,"93.02,56.19"
2024-05-28_12-55-41.371140,"92.68,55.99"
2024-05-28_12-55-41.403887,"95.51,51.69"
2024-05-28_12-55-41.436588,"99.70,53.45"
2024-05-28_12-55-41.469284,"100.01,57.26"
2024-05-28_12-55-41.498049,"74.19,55.48"
2024-05-28_12-55-41.530807,"68.02,57.73"
2024-05-28_12-55-41.563568,"69.21,63.18"
2024-05-28_12-55-41.596530,"80.63,90.53"
2024-05-28_12-55-41.629143,"78.48,98.17"
2024-05-28_12-55-41.661849,"78.36,77.07"
2024-05-28_12-55-41.694559,"98.35,82.08"
2024-05-28_12-55-41.723242,"93.43,71.91"
2024-05-28_12-55-41.756027,"100.63,63.92"
2024-05-28_12-55-41.788767,"112.06,56.33"
2024-05-28_12-55-41.821557,"88.21,54.06"
2024-05-28_12-55-41.856399,"110.52,53.12"
2024-05-28_12-55-41.887199,"80.70,57.27"
2024-05-28_12-55-41.919852,"68.33,49.92"
2024-05-28_12-55-41.948555,"71.31,74.34"
2024-05-28_12-55-41.981327,"77.08,81.93"
2024-05-28_12-55-42.014127,"83.46,86.16"
2024-05-28_12-55-42.047685,"92.98,81.38"
2024-05-28_12-55-42.079573,"80.46,85.02"
2024-05-28_12-55-42.112366,"99.73,80.51"
2024-05-28_12-55-42.145070,"83.31,68.12"
2024-05-28_12-55-42.173841,"100.29,52.01"
2024-05-28_12-55-42.206640,"106.59,56.80"
2024-05-28_12-55-42.239362,"98.33,53.77"
2024-05-28_12-55-42.272200,"90.85,53.74"
2024-05-28_12-55-42.304856,"65.57,55.09"
2024-05-28_12-55-42.337598,"63.52,56.90"
2024-05-28_12-55-42.370319,"82.22,77.62"
2024-05-28_12-55-42.399225,"80.63,90.86"
2024-05-28_12-55-42.431932,"97.46,82.20"
2024-05-28_12-55-42.464643,"84.34,75.06"
2024-05-28_12-55-42.497465,"93.30,79.76"
2024-05-28_12-55-42.530204,"108.20,72.05"
2024-05-28_12-55-42.563111,"88.20,54.00"
2024-05-28_12-55-42.595617,"104.37,53.45"
2024-05-28_12-55-42.624412,"94.83,57.64"
2024-05-28_12-55-42.657114,"87.06,47.58"
2024-05-28_12-55-42.690079,"73.25,61.10"
2024-05-28_12-55-42.722718,"55.56,75.81"
2024-05-28_12-55-42.755460,"71.34,82.46"
2024-05-28_12-55-42.788343,"84.93,86.43"
2024-05-28_12-55-42.820903,"80.44,82.84"
2024-05-28_12-55-42.849612,"97.64,87.39"
2024-05-28_12-55-42.882449,"102.42,72.36"
2024-05-28_12-55-42.915149,"92.83,68.57"
2024-05-28_12-55-42.947933,"104.22,56.33"
2024-05-28_12-55-42.980830,"83.12,53.12"
2024-05-28_12-55-43.013497,"105.58,53.27"
2024-05-28_12-55-43.046154,"93.14,52.19"
2024-05-28_12-55-43.075042,"71.33,54.14"
2024-05-28_12-55-43.107729,"62.56,56.93"
2024-05-28_12-55-43.140490,"76.19,86.99"
2024-05-28_12-55-43.173252,"75.33,91.17"
2024-05-28_12-55-43.205914,"91.35,81.88"
2024-05-28_12-55-43.238746,"91.90,79.97"
2024-05-28_12-55-43.271422,"112.34,85.93"
2024-05-28_12-55-43.304134,"87.21,70.13"
2024-05-28_12-55-43.332926,"86.71,51.87"
2024-05-28_12-55-43.365665,"96.13,56.59"
2024-05-28_12-55-43.398498,"107.21,46.76"
2024-05-28_12-55-43.431208,"101.18,56.78"
2024-05-28_12-55-43.463950,"62.54,56.88"
2024-05-28_12-55-43.496692,"70.43,56.12"
2024-05-28_12-55-43.525460,"69.46,76.05"
2024-05-28_12-55-43.558172,"82.70,78.61"
2024-05-28_12-55-43.591049,"85.32,96.01"
2024-05-28_12-55-43.623711,"83.40,78.44"
2024-05-28_12-55-43.656471,"89.92,81.58"
2024-05-28_12-55-43.689245,"106.90,71.10"
2024-05-28_12-55-43.721957,"94.29,69.47"
2024-05-28_12-55-43.754641,"87.23,52.61"
2024-05-28_12-55-43.783467,"98.31,51.31"
2024-05-28_12-55-43.816193,"95.55,52.89"
2024-05-28_12-55-43.848993,"77.05,59.68"
2024-05-28_12-55-43.881779,"63.49,58.32"
2024-05-28_12-55-43.914499,"69.21,82.14"
2024-05-28_12-55-43.947243,"79.32,78.06"
2024-05-28_12-55-43.979904,"96.72,92.63"
2024-05-28_12-55-44.008767,"95.02,84.68"
2024-05-28_12-55-44.041454,"90.46,75.37"
2024-05-28_12-55-44.074249,"102.75,80.65"
2024-05-28_12-55-44.111051,"96.20,56.23"
2024-05-28_12-55-44.139846,"99.36,46.62"
2024-05-28_12-55-44.172535,"111.16,56.26"
2024-05-28_12-55-44.205178,"91.18,54.86"
2024-05-28_12-55-44.233968,"76.13,55.49"
2024-05-28_12-55-44.266798,"59.47,67.98"
2024-05-28_12-55-44.299533,"78.31,87.61"
2024-05-28_12-55-44.332342,"81.28,92.04"
2024-05-28_12-55-44.365074,"92.22,89.05"
2024-05-28_12-55-44.397772,"87.70,81.61"
2024-05-28_12-55-44.430508,"102.52,74.25"
2024-05-28_12-55-44.459339,"92.73,82.26"
2024-05-28_12-55-44.491995,"106.60,52.19"
2024-05-28_12-55-44.524838,"98.81,51.13"
2024-05-28_12-55-44.557554,"97.08,53.45"
2024-05-28_12-55-44.590341,"103.90,56.75"
2024-05-28_12-55-44.623086,"68.28,56.72"
2024-05-28_12-55-44.655773,"66.85,55.06"
2024-05-28_12-55-44.684516,"79.18,58.46"
2024-05-28_12-55-44.717272,"84.71,87.62"
2024-05-28_12-55-44.750044,"86.37,93.66"
2024-05-28_12-55-44.782818,"80.37,75.21"
2024-05-28_12-55-44.815565,"103.92,80.68"
2024-05-28_12-55-44.848332,"88.82,71.94"
2024-05-28_12-55-44.881033,"99.13,64.74"
2024-05-28_12-55-44.909789,"103.08,55.82"
2024-05-28_12-55-44.942549,"88.08,53.97"
2024-05-28_12-55-44.975309,"103.62,52.57"
2024-05-28_12-55-45.008179,"74.05,57.12"
2024-05-28_12-55-45.040878,"66.29,51.36"
2024-05-28_12-55-45.077349,"66.59,84.11"
2024-05-28_12-55-45.106304,"82.07,78.94"
2024-05-28_12-55-45.135024,"87.15,90.09"
2024-05-28_12-55-45.167818,"101.55,76.21"
2024-05-28_12-55-45.200568,"94.69,81.78"
2024-05-28_12-55-45.233443,"100.04,66.82"
2024-05-28_12-55-45.266151,"94.21,51.28"
2024-05-28_12-55-45.299015,"90.98,54.53"
2024-05-28_12-55-45.331717,"105.46,56.54"
2024-05-28_12-55-45.360398,"95.60,53.83"
2024-05-28_12-55-45.393189,"76.35,55.36"
2024-05-28_12-55-45.425883,"64.41,55.74"
2024-05-28_12-55-45.458642,"70.78,64.50"
2024-05-28_12-55-45.494436,"83.74,91.16"
2024-05-28_12-55-45.533249,"89.25,89.53"
2024-05-28_12-55-45.557263,"66.83,97.46"
2024-05-28_12-55-45.587307,"77.40,66.76"
2024-05-28_12-55-45.618393,"97.64,52.28"
2024-05-28_12-55-45.651170,"108.63,56.47"
2024-05-28_12-55-45.684206,"87.29,54.15"
2024-05-28_12-55-45.716705,"106.92,54.19"
2024-05-28_12-55-45.749470,"102.33,57.32"
2024-05-28_12-55-45.782122,"71.97,49.56"
2024-05-28_12-55-45.811025,"68.39,61.99"
2024-05-28_12-55-45.843704,"63.62,60.09"
2024-05-28_12-55-45.876454,"76.14,89.86"
2024-05-28_12-55-45.909134,"85.73,85.18"
2024-05-28_12-55-45.941935,"85.89,79.54"
2024-05-28_12-55-45.974700,"99.46,80.55"
2024-05-28_12-55-46.007457,"90.34,52.24"
2024-05-28_12-55-46.040094,"99.43,52.04"
2024-05-28_12-55-46.068950,"96.60,56.20"
2024-05-28_12-55-46.101694,"101.54,53.70"
2024-05-28_12-55-46.134445,"97.13,54.37"
2024-05-28_12-55-46.167184,"67.42,54.99"
2024-05-28_12-55-46.200017,"64.38,73.59"
2024-05-28_12-55-46.232743,"82.24,86.89"
2024-05-28_12-55-46.265370,"74.29,81.82"
2024-05-28_12-55-46.294144,"96.20,86.38"
2024-05-28_12-55-46.327065,"85.22,81.88"
2024-05-28_12-55-46.359765,"87.04,83.13"
2024-05-28_12-55-46.392448,"101.18,58.49"
2024-05-28_12-55-46.425255,"75.61,70.38"
2024-05-28_12-55-46.457980,"108.61,52.55"
2024-05-28_12-55-46.490742,"106.80,57.01"
2024-05-28_12-55-46.520193,"89.50,48.13"
2024-05-28_12-55-46.552271,"82.30,86.06"
2024-05-28_12-55-46.585032,"58.29,58.85"
2024-05-28_12-55-46.617832,"71.74,81.18"
2024-05-28_12-55-46.650551,"81.30,87.96"
2024-05-28_12-55-46.683233,"86.74,85.48"
2024-05-28_12-55-46.715930,"97.65,81.73"
2024-05-28_12-55-46.744746,"95.55,70.14"
2024-05-28_12-55-46.777498,"94.36,67.80"
2024-05-28_12-55-46.810207,"104.69,56.17"
2024-05-28_12-55-46.842972,"94.96,53.47"
2024-05-28_12-55-46.875760,"95.91,53.04"
2024-05-28_12-55-46.908528,"96.85,52.04"
2024-05-28_12-55-46.941189,"70.59,54.28"
2024-05-28_12-55-46.969960,"60.43,62.36"
2024-05-28_12-55-47.002736,"81.76,62.83"
2024-05-28_12-55-47.035521,"76.47,89.71"
2024-05-28_12-55-47.068245,"90.47,88.09"
2024-05-28_12-55-47.101038,"89.16,89.69"
2024-05-28_12-55-47.133769,"102.65,83.08"
2024-05-28_12-55-47.166469,"82.71,70.71"
2024-05-28_12-55-47.195230,"84.99,68.06"
2024-05-28_12-55-47.227982,"97.16,56.55"
2024-05-28_12-55-47.260773,"98.69,46.76"
2024-05-28_12-55-47.293502,"112.39,56.37"
2024-05-28_12-55-47.326290,"74.16,55.72"
2024-05-28_12-55-47.359068,"70.66,56.08"
2024-05-28_12-55-47.391722,"72.44,76.25"
2024-05-28_12-55-47.420607,"80.27,73.90"
2024-05-28_12-55-47.453255,"82.25,90.09"
2024-05-28_12-55-47.486081,"93.43,76.90"
2024-05-28_12-55-47.518848,"88.80,85.53"
2024-05-28_12-55-47.551541,"94.24,73.38"
2024-05-28_12-55-47.584317,"82.95,82.66"
2024-05-28_12-55-47.617150,"97.54,52.36"
2024-05-28_12-55-47.645833,"97.69,51.53"
2024-05-28_12-55-47.678578,"102.56,53.65"
2024-05-28_12-55-47.711294,"92.00,57.50"
2024-05-28_12-55-47.744061,"64.24,57.56"
2024-05-28_12-55-47.776832,"63.23,84.26"
2024-05-28_12-55-47.809593,"76.60,72.13"
2024-05-28_12-55-47.842304,"86.56,89.25"
2024-05-28_12-55-47.871073,"93.84,100.12"
2024-05-28_12-55-47.903748,"80.92,79.16"
2024-05-28_12-55-47.937217,"94.39,81.49"
2024-05-28_12-55-47.969354,"83.44,58.85"
2024-05-28_12-55-48.002096,"92.78,48.06"
2024-05-28_12-55-48.035018,"103.59,56.24"
2024-05-28_12-55-48.067523,"88.06,54.39"
2024-05-28_12-55-48.096351,"102.69,53.84"
2024-05-28_12-55-48.129121,"77.30,58.11"
2024-05-28_12-55-48.161805,"66.31,50.60"
2024-05-28_12-55-48.194576,"68.08,99.03"
2024-05-28_12-55-48.227396,"82.31,79.34"
2024-05-28_12-55-48.260131,"69.16,95.82"
2024-05-28_12-55-48.293056,"81.69,85.44"
2024-05-28_12-55-48.321693,"96.46,84.56"
2024-05-28_12-55-48.354342,"101.25,67.59"
2024-05-28_12-55-48.387098,"96.59,51.29"
2024-05-28_12-55-48.419906,"100.45,52.59"
2024-05-28_12-55-48.452709,"105.84,56.88"
2024-05-28_12-55-48.485392,"101.96,54.23"
2024-05-28_12-55-48.518117,"85.96,54.65"
2024-05-28_12-55-48.546835,"63.68,56.75"
2024-05-28_12-55-48.579629,"61.14,57.08"
2024-05-28_12-55-48.612352,"81.68,93.58"
2024-05-28_12-55-48.645171,"83.03,91.48"
2024-05-28_12-55-48.677903,"99.36,81.56"
2024-05-28_12-55-48.710704,"86.27,72.12"
2024-05-28_12-55-48.743398,"96.68,78.69"
2024-05-28_12-55-48.772094,"99.33,85.14"
2024-05-28_12-55-48.804885,"88.08,53.98"
2024-05-28_12-55-48.837608,"108.60,52.91"
2024-05-28_12-55-48.870593,"94.97,56.92"
2024-05-28_12-55-48.903166,"93.82,46.89"
2024-05-28_12-55-48.935979,"74.25,60.88"
2024-05-28_12-55-48.968745,"68.54,69.41"
2024-05-28_12-55-48.997423,"77.73,71.00"
2024-05-28_12-55-49.030214,"72.22,78.46"
2024-05-28_12-55-49.063029,"95.06,83.26"
2024-05-28_12-55-49.095783,"100.05,81.87"
2024-05-28_12-55-49.128498,"87.29,82.14"
2024-05-28_12-55-49.161266,"89.85,68.76"
2024-05-28_12-55-49.193981,"104.85,56.82"
2024-05-28_12-55-49.226649,"83.76,53.29"
2024-05-28_12-55-49.255399,"106.28,53.18"
2024-05-28_12-55-49.288195,"100.54,52.10"
2024-05-28_12-55-49.320953,"74.93,54.22"
2024-05-28_12-55-49.353732,"60.13,62.53"
2024-05-28_12-55-49.386465,"68.98,59.94"
2024-05-28_12-55-49.419173,"80.12,87.50"
2024-05-28_12-55-49.451886,"81.40,81.41"
2024-05-28_12-55-49.480674,"90.44,87.13"
2024-05-28_12-55-49.513398,"98.76,81.07"
2024-05-28_12-55-49.546746,"82.49,70.95"
2024-05-28_12-55-49.579230,"94.39,54.40"
2024-05-28_12-55-49.611795,"83.99,65.47"
2024-05-28_12-55-49.644592,"99.67,49.70"
2024-05-28_12-55-49.677165,"107.06,57.17"
2024-05-28_12-55-49.705995,"71.18,56.47"
2024-05-28_12-55-49.738732,"72.06,57.07"
2024-05-28_12-55-49.771544,"71.51,90.61"
2024-05-28_12-55-49.804323,"80.42,78.14"
2024-05-28_12-55-49.837074,"72.06,104.65"
2024-05-28_12-55-49.869746,"91.13,76.23"
2024-05-28_12-55-49.902441,"84.50,93.16"
2024-05-28_12-55-49.931282,"95.96,73.84"
2024-05-28_12-55-49.964052,"88.90,70.06"
2024-05-28_12-55-49.996824,"107.09,53.49"
2024-05-28_12-55-50.029527,"88.87,51.21"
2024-05-28_12-55-50.062311,"101.00,54.72"
2024-05-28_12-55-50.095054,"89.25,59.24"
2024-05-28_12-55-50.127714,"64.00,57.56"
2024-05-28_12-55-50.156474,"62.27,60.82"
2024-05-28_12-55-50.189310,"75.76,79.73"
2024-05-28_12-55-50.222056,"83.97,91.30"
2024-05-28_12-55-50.254776,"80.69,92.47"
2024-05-28_12-55-50.287738,"88.29,78.94"
2024-05-28_12-55-50.320405,"98.43,71.48"
2024-05-28_12-55-50.352967,"93.46,56.61"
2024-05-28_12-55-50.381805,"98.94,46.66"
2024-05-28_12-55-50.414530,"112.54,57.45"
2024-05-28_12-55-50.447312,"94.33,54.84"
2024-05-28_12-55-50.480083,"94.95,53.57"
2024-05-28_12-55-50.512938,"68.98,59.92"
2024-05-28_12-55-50.545635,"80.76,69.25"
2024-05-28_12-55-50.578322,"67.22,83.12"
2024-05-28_12-55-50.607077,"79.46,81.40"
2024-05-28_12-55-50.639871,"74.86,91.38"
2024-05-28_12-55-50.672576,"81.42,84.90"
2024-05-28_12-55-50.705365,"91.88,84.75"
2024-05-28_12-55-50.738127,"99.83,69.18"
2024-05-28_12-55-50.770996,"95.93,51.65"
2024-05-28_12-55-50.803551,"93.57,53.25"
2024-05-28_12-55-50.832452,"97.79,58.38"
2024-05-28_12-55-50.865080,"96.66,54.99"
2024-05-28_12-55-50.897799,"80.02,56.44"
2024-05-28_12-55-50.930734,"61.31,57.20"
2024-05-28_12-55-50.963388,"82.73,79.34"
2024-05-28_12-55-50.996198,"76.99,85.89"
2024-05-28_12-55-51.028847,"76.57,86.55"
2024-05-28_12-55-51.057656,"80.63,83.55"
2024-05-28_12-55-51.090424,"73.07,81.75"
2024-05-28_12-55-51.123135,"95.86,82.67"
2024-05-28_12-55-51.155946,"103.01,73.64"
2024-05-28_12-55-51.188726,"86.61,54.39"
2024-05-28_12-55-51.221436,"108.61,53.72"
2024-05-28_12-55-51.254042,"89.28,57.66"
2024-05-28_12-55-51.282956,"85.00,47.45"
2024-05-28_12-55-51.315687,"75.62,59.64"
2024-05-28_12-55-51.348380,"71.01,86.59"
2024-05-28_12-55-51.381164,"74.54,76.80"
2024-05-28_12-55-51.413933,"75.83,89.76"
2024-05-28_12-55-51.446678,"73.17,86.94"
2024-05-28_12-55-51.479338,"90.94,94.68"
2024-05-28_12-55-51.508128,"80.27,71.69"
2024-05-28_12-55-51.540974,"96.55,67.46"
2024-05-28_12-55-51.573643,"101.54,56.70"
2024-05-28_12-55-51.606456,"94.98,53.82"
2024-05-28_12-55-51.639210,"104.90,54.27"
2024-05-28_12-55-51.672004,"100.73,52.24"
2024-05-28_12-55-51.704614,"71.65,54.84"
2024-05-28_12-55-51.733494,"62.53,75.44"
2024-05-28_12-55-51.766204,"77.42,80.66"
2024-05-28_12-55-51.798932,"74.93,81.32"
2024-05-28_12-55-51.831697,"88.75,89.87"
2024-05-28_12-55-51.864506,"67.70,93.02"
2024-05-28_12-55-51.897312,"91.55,79.64"
2024-05-28_12-55-51.929873,"93.33,56.21"
2024-05-28_12-55-51.962587,"105.86,52.40"
2024-05-28_12-55-51.991420,"96.90,57.18"
2024-05-28_12-55-52.024277,"98.77,46.80"
2024-05-28_12-55-52.056988,"96.46,57.85"
2024-05-28_12-55-52.089907,"67.92,56.62"
2024-05-28_12-55-52.122509,"73.18,56.50"
2024-05-28_12-55-52.155393,"70.32,75.58"
2024-05-28_12-55-52.187867,"77.75,83.10"
2024-05-28_12-55-52.216822,"76.64,103.63"
2024-05-28_12-55-52.249469,"89.66,78.87"
2024-05-28_12-55-52.282178,"87.54,92.35"
2024-05-28_12-55-52.314977,"98.71,73.02"
2024-05-28_12-55-52.347774,"94.23,69.36"
2024-05-28_12-55-52.380649,"106.79,53.04"
2024-05-28_12-55-52.413190,"88.65,51.68"
2024-05-28_12-55-52.441948,"96.97,54.74"
2024-05-28_12-55-52.474863,"85.38,59.26"
2024-05-28_12-55-52.507508,"67.60,56.66"
2024-05-28_12-55-52.540392,"71.22,67.27"
2024-05-28_12-55-52.573033,"78.20,81.05"
2024-05-28_12-55-52.605882,"88.94,88.32"
2024-05-28_12-55-52.638427,"88.42,90.41"
2024-05-28_12-55-52.667271,"84.38,73.56"
2024-05-28_12-55-52.700010,"99.46,67.85"
2024-05-28_12-55-52.732820,"95.18,56.68"
2024-05-28_12-55-52.765539,"96.82,47.26"
2024-05-28_12-55-52.798320,"112.04,57.62"
2024-05-28_12-55-52.830968,"95.47,55.02"
2024-05-28_12-55-52.863679,"83.07,54.37"
2024-05-28_12-55-52.892461,"60.63,59.43"
2024-05-28_12-55-52.925209,"83.54,58.01"
2024-05-28_12-55-52.957949,"75.57,93.37"
2024-05-28_12-55-52.990754,"82.17,83.83"
2024-05-28_12-55-53.023567,"87.17,80.49"
2024-05-28_12-55-53.069581,"82.97,82.31"
2024-05-28_12-55-53.091233,"89.16,74.72"
2024-05-28_12-55-53.118103,"89.17,58.92"
2024-05-28_12-55-53.150631,"92.32,53.08"
2024-05-28_12-55-53.183300,"99.07,54.44"
2024-05-28_12-55-53.216077,"104.19,58.04"
2024-05-28_12-55-53.248845,"68.22,57.29"
2024-05-28_12-55-53.281560,"69.85,79.20"
2024-05-28_12-55-53.314254,"77.89,63.19"
2024-05-28_12-55-53.343021,"88.36,86.64"
2024-05-28_12-55-53.375741,"97.70,88.20"
2024-05-28_12-55-53.408552,"80.87,71.45"
2024-05-28_12-55-53.441377,"91.63,83.52"
2024-05-28_12-55-53.474135,"90.84,72.24"
2024-05-28_12-55-53.506896,"95.68,46.52"
2024-05-28_12-55-53.539505,"104.48,56.26"
2024-05-28_12-55-53.568269,"87.08,54.14"
2024-05-28_12-55-53.601094,"101.80,52.98"
2024-05-28_12-55-53.633828,"74.30,58.10"
2024-05-28_12-55-53.666598,"65.62,50.00"
2024-05-28_12-55-53.699405,"68.34,86.34"
2024-05-28_12-55-53.732157,"75.78,83.21"
2024-05-28_12-55-53.764827,"78.36,95.83"
2024-05-28_12-55-53.793669,"93.95,82.86"
2024-05-28_12-55-53.826369,"93.80,83.89"
2024-05-28_12-55-53.859133,"97.06,69.21"
2024-05-28_12-55-53.891962,"96.20,51.27"
2024-05-28_12-55-53.924655,"97.67,52.99"
2024-05-28_12-55-53.957499,"106.24,56.58"
2024-05-28_12-55-53.990063,"99.98,54.36"
2024-05-28_12-55-54.018858,"80.73,54.82"
2024-05-28_12-55-54.051646,"64.93,55.61"
2024-05-28_12-55-54.084425,"63.14,62.35"
2024-05-28_12-55-54.117147,"78.93,87.54"
2024-05-28_12-55-54.149985,"81.43,86.33"
2024-05-28_12-55-54.182681,"92.66,82.91"
2024-05-28_12-55-54.215417,"84.81,78.33"
2024-05-28_12-55-54.248057,"96.08,79.71"
2024-05-28_12-55-54.276890,"108.16,72.33"
2024-05-28_12-55-54.309610,"88.04,54.06"
2024-05-28_12-55-54.342393,"95.24,54.40"
2024-05-28_12-55-54.375134,"97.36,56.29"
2024-05-28_12-55-54.407898,"84.93,47.64"
2024-05-28_12-55-54.440808,"71.30,60.61"
2024-05-28_12-55-54.473312,"67.94,62.44"
2024-05-28_12-55-54.502078,"73.22,81.73"
2024-05-28_12-55-54.534894,"86.39,85.13"
2024-05-28_12-55-54.567683,"91.26,80.09"
2024-05-28_12-55-54.600457,"91.02,86.75"
2024-05-28_12-55-54.633181,"88.74,71.65"
2024-05-28_12-55-54.665863,"98.80,68.22"
2024-05-28_12-55-54.698600,"107.52,56.54"
2024-05-28_12-55-54.727411,"83.03,54.02"
2024-05-28_12-55-54.760197,"107.45,54.14"
2024-05-28_12-55-54.792974,"79.51,53.41"
2024-05-28_12-55-54.825693,"65.75,55.97"
2024-05-28_12-55-54.858515,"69.21,74.35"
2024-05-28_12-55-54.891151,"80.27,81.06"
2024-05-28_12-55-54.923985,"83.61,83.97"
2024-05-28_12-55-54.952781,"84.52,84.06"
2024-05-28_12-55-54.985456,"83.84,93.74"
2024-05-28_12-55-55.018360,"97.16,86.86"
2024-05-28_12-55-55.051016,"86.72,54.39"
2024-05-28_12-55-55.083903,"106.80,53.14"
2024-05-28_12-55-55.116428,"88.23,57.44"
2024-05-28_12-55-55.149118,"100.18,48.20"
2024-05-28_12-55-55.177943,"88.13,58.70"
2024-05-28_12-55-55.210683,"58.79,57.24"
2024-05-28_12-55-55.243446,"64.10,77.78"
2024-05-28_12-55-55.276293,"80.70,88.58"
2024-05-28_12-55-55.309002,"81.99,91.02"
2024-05-28_12-55-55.341721,"89.17,90.05"
2024-05-28_12-55-55.374375,"87.29,72.33"
2024-05-28_12-55-55.403207,"93.43,81.60"
2024-05-28_12-55-55.435975,"94.83,57.71"
2024-05-28_12-55-55.468819,"93.01,53.58"
2024-05-28_12-55-55.506374,"108.33,53.22"
2024-05-28_12-55-55.534603,"76.88,52.23"
2024-05-28_12-55-55.567151,"82.53,55.90"
2024-05-28_12-55-55.599743,"76.31,60.01"
2024-05-28_12-55-55.628484,"61.87,59.34"
2024-05-28_12-55-55.661234,"67.95,76.71"
2024-05-28_12-55-55.694055,"79.22,79.16"
2024-05-28_12-55-55.726826,"79.91,92.59"
2024-05-28_12-55-55.759532,"93.47,87.13"
2024-05-28_12-55-55.792401,"84.68,74.98"
2024-05-28_12-55-55.824990,"85.49,59.19"
2024-05-28_12-55-55.853728,"93.76,56.85"
2024-05-28_12-55-55.886465,"101.13,46.53"
2024-05-28_12-55-55.919362,"100.36,56.82"
2024-05-28_12-55-55.952002,"94.58,54.95"
2024-05-28_12-55-55.984767,"80.17,55.58"
2024-05-28_12-55-56.017737,"60.59,59.82"
2024-05-28_12-55-56.050226,"71.35,52.46"
2024-05-28_12-55-56.079011,"75.52,93.56"
2024-05-28_12-55-56.111743,"81.45,85.23"
2024-05-28_12-55-56.144520,"86.82,80.62"
2024-05-28_12-55-56.177261,"96.71,79.01"
2024-05-28_12-55-56.210017,"92.80,82.30"
2024-05-28_12-55-56.242803,"104.95,68.55"
2024-05-28_12-55-56.275555,"96.92,51.36"
2024-05-28_12-55-56.304329,"100.73,53.24"
2024-05-28_12-55-56.337035,"110.64,56.40"
2024-05-28_12-55-56.369764,"83.30,55.63"
