timestamp,EMG
2024-05-28_13-15-10.637411,"84.96,86.05"
2024-05-28_13-15-10.637809,"90.40,75.24"
2024-05-28_13-15-10.638113,"65.05,71.46"
2024-05-28_13-15-10.638400,"58.39,74.82"
2024-05-28_13-15-10.638581,".44,70.19"
2024-05-28_13-15-10.638744,"76.69,81.48"
2024-05-28_13-15-10.638955,"86.49,80.22"
2024-05-28_13-15-10.639116,"90.83,53.17"
2024-05-28_13-15-10.639267,"74.50,52.92"
2024-05-28_13-15-10.639401,"81.45,86.92"
2024-05-28_13-15-10.639529,"84.96,86.05"
2024-05-28_13-15-10.639668,"90.40,75.24"
2024-05-28_13-15-10.639797,"65.05,71.46"
2024-05-28_13-15-10.639950,"58.39,74.82"
2024-05-28_13-15-12.291712,"89.97,65.39"
2024-05-28_13-15-12.324399,"92.00,55.88"
2024-05-28_13-15-12.357081,"62.36,80.40"
2024-05-28_13-15-12.389975,"94.36,91.37"
2024-05-28_13-15-12.422689,"91.22,84.99"
2024-05-28_13-15-12.455349,"99.27,84.07"
2024-05-28_13-15-12.488027,"84.69,84.13"
2024-05-28_13-15-12.516846,"71.36,70.48"
2024-05-28_13-15-12.549599,"88.88,80.42"
2024-05-28_13-15-12.582542,"85.39,72.54"
2024-05-28_13-15-12.615353,"90.42,65.62"
2024-05-28_13-15-12.647978,"69.85,78.45"
2024-05-28_13-15-12.680600,"87.16,64.41"
2024-05-28_13-15-12.713342,"92.26,87.40"
2024-05-28_13-15-12.742127,"85.26,75.05"
2024-05-28_13-15-12.774869,"87.67,81.84"
2024-05-28_13-15-12.807707,"82.21,79.54"
2024-05-28_13-15-12.840447,"84.07,67.82"
2024-05-28_13-15-12.873179,"81.29,68.27"
2024-05-28_13-15-12.905901,"98.21,56.35"
2024-05-28_13-15-12.938608,"77.83,55.45"
2024-05-28_13-15-12.967366,"76.32,84.91"
2024-05-28_13-15-13.000164,"95.52,83.14"
2024-05-28_13-15-13.032879,"86.01,83.39"
2024-05-28_13-15-13.065680,"89.12,85.51"
2024-05-28_13-15-13.098552,"71.64,71.29"
2024-05-28_13-15-13.131180,"88.35,79.43"
2024-05-28_13-15-13.163937,"92.24,57.80"
2024-05-28_13-15-13.192690,"82.51,54.39"
2024-05-28_13-15-13.225405,"97.45,57.75"
2024-05-28_13-15-13.258265,"51.59,58.26"
2024-05-28_13-15-13.291204,"84.46,89.47"
2024-05-28_13-15-13.323777,"91.85,93.85"
2024-05-28_13-15-13.356647,"81.79,85.53"
2024-05-28_13-15-13.390065,"80.89,68.93"
2024-05-28_13-15-13.418343,"99.08,62.82"
2024-05-28_13-15-13.450832,"97.11,75.30"
2024-05-28_13-15-13.483509,"97.35,63.89"
2024-05-28_13-15-13.516308,"94.17,55.51"
2024-05-28_13-15-13.549335,"69.41,51.60"
2024-05-28_13-15-13.581751,"93.01,70.59"
2024-05-28_13-15-13.614535,"85.05,84.89"
2024-05-28_13-15-13.653695,"101.47,83.97"
2024-05-28_13-15-13.676032,"72.75,75.59"
2024-05-28_13-15-13.708817,"82.85,86.16"
2024-05-28_13-15-13.741526,"90.04,71.59"
2024-05-28_13-15-13.774386,"82.72,77.22"
2024-05-28_13-15-13.807114,"88.43,82.99"
2024-05-28_13-15-13.839689,"67.65,54.04"
2024-05-28_13-15-13.868624,"82.01,66.13"
2024-05-28_13-15-13.901233,"99.17,85.94"
2024-05-28_13-15-13.934089,"98.13,75.93"
2024-05-28_13-15-13.967051,"99.73,85.07"
2024-05-28_13-15-13.999655,"69.26,86.39"
2024-05-28_13-15-14.032259,"80.14,73.34"
2024-05-28_13-15-14.065009,"81.06,71.51"
2024-05-28_13-15-14.093797,"89.45,82.41"
2024-05-28_13-15-14.128835,"93.17,68.90"
2024-05-28_13-15-14.159328,"88.40,68.03"
2024-05-28_13-15-14.192086,"93.46,76.39"
2024-05-28_13-15-14.224863,"86.42,93.43"
2024-05-28_13-15-14.257717,"82.81,70.77"
2024-05-28_13-15-14.290275,"80.46,83.29"
2024-05-28_13-15-14.319031,"83.65,64.16"
2024-05-28_13-15-14.351811,"75.90,78.02"
2024-05-28_13-15-14.384668,"96.59,85.63"
2024-05-28_13-15-14.417542,"85.45,58.47"
2024-05-28_13-15-14.450109,"77.95,82.06"
2024-05-28_13-15-14.482881,"72.21,73.38"
2024-05-28_13-15-14.515672,"94.58,79.53"
2024-05-28_13-15-14.544325,"97.54,89.18"
2024-05-28_13-15-14.577839,"84.50,77.61"
2024-05-28_13-15-14.609854,"58.74,100.24"
2024-05-28_13-15-14.642629,"88.94,64.97"
2024-05-28_13-15-14.675451,"84.75,82.02"
2024-05-28_13-15-14.708247,"86.39,78.11"
2024-05-28_13-15-14.740848,"92.73,50.56"
2024-05-28_13-15-14.769611,"70.26,82.55"
2024-05-28_13-15-14.802321,"90.73,79.47"
2024-05-28_13-15-14.835184,"96.01,86.65"
2024-05-28_13-15-14.867914,"81.78,84.56"
2024-05-28_13-15-14.900720,"70.74,88.63"
2024-05-28_13-15-14.933478,"77.52,80.74"
2024-05-28_13-15-14.966255,"83.22,84.19"
2024-05-28_13-15-14.998855,"77.80,69.66"
2024-05-28_13-15-15.027737,"87.60,78.58"
2024-05-28_13-15-15.060472,"88.83,67.55"
2024-05-28_13-15-15.093183,"96.92,96.19"
2024-05-28_13-15-15.125917,"86.41,80.49"
2024-05-28_13-15-15.158874,"84.49,67.22"
2024-05-28_13-15-15.191408,"82.93,89.79"
2024-05-28_13-15-15.224067,"60.82,92.88"
2024-05-28_13-15-15.252907,"77.44,71.54"
2024-05-28_13-15-15.285670,"89.83,80.73"
2024-05-28_13-15-15.318515,"71.21,69.33"
2024-05-28_13-15-15.351341,"92.40,50.55"
2024-05-28_13-15-15.383984,"82.16,91.45"
2024-05-28_13-15-15.416724,"92.53,81.85"
2024-05-28_13-15-15.449469,"89.33,84.99"
2024-05-28_13-15-15.478338,"83.17,70.89"
2024-05-28_13-15-15.510975,"52.07,94.60"
2024-05-28_13-15-15.543697,"79.96,90.45"
2024-05-28_13-15-15.576485,"73.27,70.29"
2024-05-28_13-15-15.609440,"83.92,83.52"
2024-05-28_13-15-15.642002,"101.56,82.39"
2024-05-28_13-15-15.674623,"80.52,68.71"
2024-05-28_13-15-15.703435,"71.22,74.51"
2024-05-28_13-15-15.736330,"83.14,84.08"
2024-05-28_13-15-15.769002,"89.77,94.45"
2024-05-28_13-15-15.801779,"69.00,87.83"
2024-05-28_13-15-15.834498,"68.06,88.01"
2024-05-28_13-15-15.867276,"78.96,79.36"
2024-05-28_13-15-15.899929,"88.76,71.96"
2024-05-28_13-15-15.928743,"80.41,78.59"
2024-05-28_13-15-15.961491,"101.59,66.34"
2024-05-28_13-15-15.994260,"78.93,60.40"
2024-05-28_13-15-16.027042,"73.44,76.24"
2024-05-28_13-15-16.059808,"86.65,76.44"
2024-05-28_13-15-16.092433,"76.31,69.97"
2024-05-28_13-15-16.125144,"82.24,92.36"
2024-05-28_13-15-16.154064,"78.11,72.34"
2024-05-28_13-15-16.186763,"93.97,79.68"
2024-05-28_13-15-16.219532,"82.41,64.72"
2024-05-28_13-15-16.252259,"90.41,48.44"
2024-05-28_13-15-16.285285,"104.00,55.91"
2024-05-28_13-15-16.317726,"59.62,56.71"
2024-05-28_13-15-16.350426,"96.59,79.16"
2024-05-28_13-15-16.379322,"104.37,87.72"
2024-05-28_13-15-16.412035,"94.34,88.23"
2024-05-28_13-15-16.444776,"87.02,81.94"
2024-05-28_13-15-16.477557,"87.69,69.62"
2024-05-28_13-15-16.510279,"81.46,79.37"
2024-05-28_13-15-16.542998,"84.04,71.84"
2024-05-28_13-15-16.575716,"96.15,83.27"
2024-05-28_13-15-16.604469,"97.31,51.72"
2024-05-28_13-15-16.637369,"57.92,59.16"
2024-05-28_13-15-16.670032,"99.50,92.77"
2024-05-28_13-15-16.702826,"88.79,73.97"
2024-05-28_13-15-16.735648,"72.67,78.75"
2024-05-28_13-15-16.768421,"83.55,78.10"
2024-05-28_13-15-16.801019,"83.77,70.83"
2024-05-28_13-15-16.829727,"81.80,76.71"
2024-05-28_13-15-16.862549,"94.83,72.25"
2024-05-28_13-15-16.895346,"91.87,54.49"
2024-05-28_13-15-16.928073,"82.14,75.56"
2024-05-28_13-15-16.960850,"85.01,87.57"
2024-05-28_13-15-16.993587,"94.45,91.65"
2024-05-28_13-15-17.026279,"83.30,82.31"
2024-05-28_13-15-17.055002,"85.78,72.44"
2024-05-28_13-15-17.087774,"81.78,78.14"
2024-05-28_13-15-17.120537,"77.63,70.70"
2024-05-28_13-15-17.153322,"89.24,82.74"
2024-05-28_13-15-17.186104,"88.02,68.20"
2024-05-28_13-15-17.218826,"96.87,52.24"
2024-05-28_13-15-17.251509,"64.53,88.23"
2024-05-28_13-15-17.280436,"81.10,94.24"
2024-05-28_13-15-17.313053,"81.65,67.63"
2024-05-28_13-15-17.345824,"82.19,82.08"
2024-05-28_13-15-17.378664,"77.61,73.27"
2024-05-28_13-15-17.411413,"83.16,77.13"
2024-05-28_13-15-17.444141,"92.45,84.04"
2024-05-28_13-15-17.476802,"78.72,71.11"
2024-05-28_13-15-17.505600,"105.42,68.47"
2024-05-28_13-15-17.538329,"80.38,52.76"
2024-05-28_13-15-17.571089,"81.63,72.84"
2024-05-28_13-15-17.603882,"84.92,85.67"
2024-05-28_13-15-17.636823,"88.42,80.10"
2024-05-28_13-15-17.669467,"79.70,82.83"
2024-05-28_13-15-17.702060,"89.16,73.68"
2024-05-28_13-15-17.730844,"90.68,81.71"
2024-05-28_13-15-17.763572,"88.07,80.72"
2024-05-28_13-15-17.796386,"86.44,68.17"
2024-05-28_13-15-17.829154,"91.50,51.22"
2024-05-28_13-15-17.861924,"71.27,96.02"
2024-05-28_13-15-17.894724,"82.62,82.34"
2024-05-28_13-15-17.927398,"100.78,89.54"
2024-05-28_13-15-17.956100,"81.46,80.15"
2024-05-28_13-15-17.988889,"85.33,75.08"
2024-05-28_13-15-18.021619,"89.43,83.27"
2024-05-28_13-15-18.054437,"75.58,69.83"
2024-05-28_13-15-18.087236,"90.40,81.18"
2024-05-28_13-15-18.119979,"91.47,55.22"
2024-05-28_13-15-18.152636,"91.76,46.50"
2024-05-28_13-15-18.185401,"72.78,74.73"
2024-05-28_13-15-18.214169,"90.39,84.51"
2024-05-28_13-15-18.246960,"71.90,69.85"
2024-05-28_13-15-18.279886,"78.66,75.42"
2024-05-28_13-15-18.312430,"90.83,81.44"
2024-05-28_13-15-18.345211,"85.14,79.91"
2024-05-28_13-15-18.377941,"83.93,67.88"
2024-05-28_13-15-18.410672,"82.55,80.64"
2024-05-28_13-15-18.439443,"96.76,56.73"
2024-05-28_13-15-18.472195,"65.49,64.69"
2024-05-28_13-15-18.505015,"92.94,87.11"
2024-05-28_13-15-18.537723,"95.59,62.46"
2024-05-28_13-15-18.570481,"80.68,79.37"
2024-05-28_13-15-18.603207,"92.24,85.15"
2024-05-28_13-15-18.635911,"71.45,70.71"
2024-05-28_13-15-18.664684,"87.54,80.01"
2024-05-28_13-15-18.697511,"85.05,71.53"
2024-05-28_13-15-18.730231,"88.61,64.39"
2024-05-28_13-15-18.763000,"89.86,78.78"
2024-05-28_13-15-18.795722,"59.00,67.25"
2024-05-28_13-15-18.828470,"95.71,85.48"
2024-05-28_13-15-18.861200,"91.22,91.74"
2024-05-28_13-15-18.889955,"83.69,86.60"
2024-05-28_13-15-18.922732,"83.65,79.34"
2024-05-28_13-15-18.955542,"87.16,68.12"
2024-05-28_13-15-18.988275,"82.17,80.62"
2024-05-28_13-15-19.021058,"84.42,71.77"
2024-05-28_13-15-19.053764,"101.32,54.19"
2024-05-28_13-15-19.086474,"75.96,57.13"
2024-05-28_13-15-19.115294,"77.71,77.04"
2024-05-28_13-15-19.148022,"89.75,82.98"
2024-05-28_13-15-19.180754,"91.65,82.34"
2024-05-28_13-15-19.213570,"82.81,73.81"
2024-05-28_13-15-19.246310,"87.13,78.75"
2024-05-28_13-15-19.279007,"77.23,71.07"
2024-05-28_13-15-19.311723,"82.33,77.43"
2024-05-28_13-15-19.340577,"103.94,72.57"
2024-05-28_13-15-19.373266,"79.98,55.52"
2024-05-28_13-15-19.406072,"66.13,77.18"
2024-05-28_13-15-19.438832,"92.65,85.07"
2024-05-28_13-15-19.471574,"97.50,76.91"
2024-05-28_13-15-19.504336,"85.53,79.99"
2024-05-28_13-15-19.537001,"78.54,70.86"
2024-05-28_13-15-19.565779,"85.35,78.11"
2024-05-28_13-15-19.598539,"81.82,71.27"
2024-05-28_13-15-19.631294,"87.32,82.21"
2024-05-28_13-15-19.664130,"105.62,68.92"
2024-05-28_13-15-19.696877,"81.51,55.43"
2024-05-28_13-15-19.729567,"77.33,92.32"
2024-05-28_13-15-19.762297,"88.51,91.72"
2024-05-28_13-15-19.791075,"75.21,69.70"
2024-05-28_13-15-19.823828,"78.63,76.79"
2024-05-28_13-15-19.856571,"82.59,71.65"
2024-05-28_13-15-19.889349,"78.17,76.38"
2024-05-28_13-15-19.922115,"93.54,84.20"
2024-05-28_13-15-19.954871,"75.27,70.33"
2024-05-28_13-15-19.987537,"96.12,52.24"
2024-05-28_13-15-20.016342,"71.18,94.40"
2024-05-28_13-15-20.049079,"94.68,81.07"
2024-05-28_13-15-20.081837,"91.18,84.99"
2024-05-28_13-15-20.114618,"83.84,77.66"
2024-05-28_13-15-20.147401,"75.94,77.98"
2024-05-28_13-15-20.180144,"85.93,71.08"
2024-05-28_13-15-20.212873,"87.57,81.83"
2024-05-28_13-15-20.241566,"87.62,80.56"
2024-05-28_13-15-20.274347,"94.38,68.12"
2024-05-28_13-15-20.307126,"95.60,50.79"
2024-05-28_13-15-20.339887,"71.27,76.22"
2024-05-28_13-15-20.372671,"91.64,76.50"
2024-05-28_13-15-20.405471,"70.63,71.60"
2024-05-28_13-15-20.438109,"76.01,77.19"
2024-05-28_13-15-20.466841,"88.26,76.00"
2024-05-28_13-15-20.499634,"84.07,82.66"
2024-05-28_13-15-20.532441,"77.70,70.81"
2024-05-28_13-15-20.565173,"94.77,68.92"
2024-05-28_13-15-20.600776,"81.04,56.69"
2024-05-28_13-15-20.630812,"89.07,78.22"
2024-05-28_13-15-20.663424,"81.91,75.60"
2024-05-28_13-15-20.692158,"79.48,58.31"
2024-05-28_13-15-20.724931,"78.16,83.07"
2024-05-28_13-15-20.757709,"79.10,75.11"
2024-05-28_13-15-20.791893,"80.21,82.40"
2024-05-28_13-15-20.823233,"91.13,76.27"
2024-05-28_13-15-20.856000,"109.34,61.11"
2024-05-28_13-15-20.888676,"79.96,51.94"
2024-05-28_13-15-20.921419,"103.16,55.96"
2024-05-28_13-15-20.950205,"65.19,57.03"
2024-05-28_13-15-20.982952,"93.51,84.59"
2024-05-28_13-15-21.015757,"70.85,64.31"
2024-05-28_13-15-21.048503,"91.36,81.06"
2024-05-28_13-15-21.081280,"76.73,84.92"
2024-05-28_13-15-21.113980,"83.59,72.51"
2024-05-28_13-15-21.146654,"88.93,72.57"
2024-05-28_13-15-21.175490,"81.42,70.98"
2024-05-28_13-15-21.208279,"87.86,63.70"
2024-05-28_13-15-21.241023,"84.88,91.34"
2024-05-28_13-15-21.273720,"84.28,65.15"
2024-05-28_13-15-21.306507,"91.29,89.01"
2024-05-28_13-15-21.339271,"100.62,75.77"
2024-05-28_13-15-21.372016,"82.51,84.62"
2024-05-28_13-15-21.400714,"89.76,80.10"
2024-05-28_13-15-21.433494,"83.28,69.07"
2024-05-28_13-15-21.466288,"85.72,82.68"
2024-05-28_13-15-21.498996,"85.64,56.57"
2024-05-28_13-15-21.531829,"98.35,53.72"
2024-05-28_13-15-21.564501,"72.94,83.06"
2024-05-28_13-15-21.597187,"82.72,63.77"
2024-05-28_13-15-21.625993,"101.15,84.36"
2024-05-28_13-15-21.658808,"91.38,82.39"
2024-05-28_13-15-21.691721,"85.84,76.94"
2024-05-28_13-15-21.724481,"95.14,73.28"
2024-05-28_13-15-21.757146,"92.87,58.87"
2024-05-28_13-15-21.789805,"83.27,78.87"
2024-05-28_13-15-21.822590,"103.41,72.21"
2024-05-28_13-15-21.851300,"84.27,68.37"
2024-05-28_13-15-21.884002,"74.64,92.71"
2024-05-28_13-15-21.916773,"97.91,80.74"
2024-05-28_13-15-21.949549,"99.65,90.16"
2024-05-28_13-15-21.989970,"102.90,82.85"
2024-05-28_13-15-22.017937,"77.52,74.09"
2024-05-28_13-15-22.048275,"80.86,95.50"
2024-05-28_13-15-22.076593,"100.13,80.23"
2024-05-28_13-15-22.109287,"97.42,71.09"
2024-05-28_13-15-22.142054,"95.99,53.45"
2024-05-28_13-15-22.174835,"69.61,54.74"
2024-05-28_13-15-22.207659,"93.51,92.14"
2024-05-28_13-15-22.240339,"100.59,92.47"
2024-05-28_13-15-22.273054,"92.22,79.47"
2024-05-28_13-15-22.301815,"78.94,78.64"
2024-05-28_13-15-22.334548,"86.61,71.90"
2024-05-28_13-15-22.367315,"80.06,77.91"
2024-05-28_13-15-22.400092,"95.67,84.16"
2024-05-28_13-15-22.432892,"88.05,54.48"
2024-05-28_13-15-22.465605,"97.59,79.35"
2024-05-28_13-15-22.498309,"69.78,80.08"
2024-05-28_13-15-22.527068,"97.56,81.14"
2024-05-28_13-15-22.559830,"92.25,74.71"
2024-05-28_13-15-22.592598,"89.61,76.22"
2024-05-28_13-15-22.626876,"75.84,78.66"
2024-05-28_13-15-22.658952,"94.00,74.25"
2024-05-28_13-15-22.690939,"97.80,69.23"
2024-05-28_13-15-22.723605,"97.97,68.93"
2024-05-28_13-15-22.752404,"97.59,52.41"
2024-05-28_13-15-22.785228,"77.22,63.76"
2024-05-28_13-15-22.817911,"94.18,92.36"
2024-05-28_13-15-22.850661,"97.47,90.46"
2024-05-28_13-15-22.883458,"86.00,84.12"
2024-05-28_13-15-22.916217,"78.35,74.55"
2024-05-28_13-15-22.948869,"91.78,76.21"
2024-05-28_13-15-22.977704,"88.50,83.86"
2024-05-28_13-15-23.010432,"75.77,70.19"
2024-05-28_13-15-23.043254,"97.06,65.29"
2024-05-28_13-15-23.075971,"94.27,52.94"
2024-05-28_13-15-23.108689,"80.15,77.41"
2024-05-28_13-15-23.141579,"95.34,91.12"
2024-05-28_13-15-23.174155,"95.37,70.96"
2024-05-28_13-15-23.202937,"91.64,80.18"
2024-05-28_13-15-23.235652,"72.10,74.47"
2024-05-28_13-15-23.268418,"89.05,81.94"
2024-05-28_13-15-23.301356,"86.12,80.61"
2024-05-28_13-15-23.334026,"83.16,74.47"
2024-05-28_13-15-23.366815,"93.30,57.43"
2024-05-28_13-15-23.399485,"90.20,72.55"
2024-05-28_13-15-23.428245,"76.34,66.13"
2024-05-28_13-15-23.461169,"87.70,73.67"
2024-05-28_13-15-23.494119,"91.21,63.59"
2024-05-28_13-15-23.526579,"53.94,73.76"
2024-05-28_13-15-23.559272,"80.70,87.70"
2024-05-28_13-15-23.592124,"73.59,70.81"
2024-05-28_13-15-23.624716,"88.85,80.40"
2024-05-28_13-15-23.657455,"84.52,71.94"
2024-05-28_13-15-23.686220,"99.20,65.04"
2024-05-28_13-15-23.718983,"67.86,87.94"
2024-05-28_13-15-23.751780,"81.33,81.47"
2024-05-28_13-15-23.784542,"99.97,90.44"
2024-05-28_13-15-23.817309,"77.48,80.56"
2024-05-28_13-15-23.849980,"82.18,83.27"
2024-05-28_13-15-23.882658,"80.63,79.31"
2024-05-28_13-15-23.911518,"83.99,67.37"
2024-05-28_13-15-23.944257,"84.98,65.74"
2024-05-28_13-15-23.977434,"100.02,56.94"
2024-05-28_13-15-24.010027,"80.03,56.58"
2024-05-28_13-15-24.042554,"76.14,91.73"
2024-05-28_13-15-24.075257,"97.05,84.51"
2024-05-28_13-15-24.107959,"82.99,71.91"
2024-05-28_13-15-24.136747,"85.90,84.78"
2024-05-28_13-15-24.169567,"67.83,72.05"
2024-05-28_13-15-24.202314,"85.30,79.43"
2024-05-28_13-15-24.235102,"83.44,71.85"
2024-05-28_13-15-24.268008,"80.96,78.30"
2024-05-28_13-15-24.300589,"89.62,53.85"
2024-05-28_13-15-24.333233,"85.44,85.82"
2024-05-28_13-15-24.362097,"86.80,76.34"
2024-05-28_13-15-24.394959,"92.20,67.24"
2024-05-28_13-15-24.427642,"92.78,88.86"
2024-05-28_13-15-24.460376,"80.69,82.60"
2024-05-28_13-15-24.493098,"89.97,69.34"
2024-05-28_13-15-24.525798,"81.99,79.25"
2024-05-28_13-15-24.558568,"81.24,71.36"
2024-05-28_13-15-24.587346,"86.79,85.46"
2024-05-28_13-15-24.620265,"80.01,68.01"
2024-05-28_13-15-24.652945,"89.61,83.93"
2024-05-28_13-15-24.685600,"88.16,80.09"
2024-05-28_13-15-24.718386,"85.72,83.93"
2024-05-28_13-15-24.751102,"74.82,74.77"
2024-05-28_13-15-24.783853,"84.38,77.40"
2024-05-28_13-15-24.812653,"86.88,69.49"
2024-05-28_13-15-24.845419,"85.77,70.43"
2024-05-28_13-15-24.878091,"101.54,61.46"
2024-05-28_13-15-24.910847,"92.90,55.58"
2024-05-28_13-15-24.943691,"72.25,75.91"
2024-05-28_13-15-24.976339,"88.08,90.10"
2024-05-28_13-15-25.009159,"85.97,77.95"
2024-05-28_13-15-25.038018,"100.71,82.52"
2024-05-28_13-15-25.070706,"69.03,73.11"
2024-05-28_13-15-25.103376,"80.50,81.47"
2024-05-28_13-15-25.136151,"81.88,70.55"
2024-05-28_13-15-25.168926,"87.96,81.78"
2024-05-28_13-15-25.201649,"94.59,68.61"
2024-05-28_13-15-25.234349,"80.35,71.75"
2024-05-28_13-15-25.263145,"65.70,72.96"
2024-05-28_13-15-25.295924,"103.53,86.59"
2024-05-28_13-15-25.328728,"85.04,69.68"
2024-05-28_13-15-25.361485,"74.27,79.64"
2024-05-28_13-15-25.394198,"80.70,72.21"
2024-05-28_13-15-25.426982,"76.73,76.37"
2024-05-28_13-15-25.459640,"99.07,84.70"
2024-05-28_13-15-25.488396,"79.56,53.53"
2024-05-28_13-15-25.521149,"88.21,72.72"
2024-05-28_13-15-25.553930,"69.21,78.11"
2024-05-28_13-15-25.586691,"92.65,80.68"
2024-05-28_13-15-25.619467,"68.67,73.56"
2024-05-28_13-15-25.652230,"77.62,75.47"
2024-05-28_13-15-25.684895,"78.42,77.14"
2024-05-28_13-15-25.713814,"80.51,71.48"
2024-05-28_13-15-25.746618,"88.11,81.79"
2024-05-28_13-15-25.784009,"91.24,80.39"
2024-05-28_13-15-25.812042,"73.71,63.74"
2024-05-28_13-15-25.844850,"100.46,85.78"
2024-05-28_13-15-25.877669,"84.71,94.19"
2024-05-28_13-15-25.910192,"90.57,61.88"
2024-05-28_13-15-25.942857,"81.16,81.01"
2024-05-28_13-15-25.971719,"73.46,72.44"
2024-05-28_13-15-26.004461,"83.05,75.95"
2024-05-28_13-15-26.038048,"91.17,83.85"
2024-05-28_13-15-26.070217,"79.45,68.91"
2024-05-28_13-15-26.102815,"89.83,82.21"
2024-05-28_13-15-26.135539,"83.30,64.87"
2024-05-28_13-15-26.168176,"65.10,78.50"
2024-05-28_13-15-26.196957,"87.01,91.51"
2024-05-28_13-15-26.229786,"95.28,79.15"
2024-05-28_13-15-26.262639,"82.15,80.04"
2024-05-28_13-15-26.295435,"83.21,77.12"
2024-05-28_13-15-26.328163,"90.76,83.17"
2024-05-28_13-15-26.360765,"83.54,63.38"
2024-05-28_13-15-26.393650,"112.76,57.07"
2024-05-28_13-15-26.422297,"79.82,53.17"
2024-05-28_13-15-26.455072,"78.63,64.37"
2024-05-28_13-15-26.487819,"90.17,81.15"
2024-05-28_13-15-26.520696,"100.45,92.52"
2024-05-28_13-15-26.553332,"84.30,69.84"
2024-05-28_13-15-26.586032,"85.60,80.99"
2024-05-28_13-15-26.618720,"90.22,82.89"
2024-05-28_13-15-26.647734,"76.93,70.41"
2024-05-28_13-15-26.680395,"91.69,70.49"
2024-05-28_13-15-26.713157,"93.51,58.83"
2024-05-28_13-15-26.745909,"85.27,62.40"
2024-05-28_13-15-26.778780,"85.44,72.90"
2024-05-28_13-15-26.811301,"76.83,71.26"
2024-05-28_13-15-26.844414,"96.89,80.99"
2024-05-28_13-15-26.872883,"74.69,80.84"
2024-05-28_13-15-26.905696,"73.42,85.25"
2024-05-28_13-15-26.938383,"94.25,71.41"
2024-05-28_13-15-26.971195,"90.95,60.92"
2024-05-28_13-15-27.003915,"93.43,72.75"
2024-05-28_13-15-27.036638,"95.48,81.76"
2024-05-28_13-15-27.069300,"72.01,70.26"
2024-05-28_13-15-27.098183,"88.54,73.93"
2024-05-28_13-15-27.130877,"90.84,81.15"
2024-05-28_13-15-27.163650,"81.68,86.46"
2024-05-28_13-15-27.196456,"94.37,87.82"
2024-05-28_13-15-27.229268,"83.10,61.66"
2024-05-28_13-15-27.261853,"86.08,81.86"
2024-05-28_13-15-27.294697,"86.90,69.82"
2024-05-28_13-15-27.323513,"82.69,58.88"
2024-05-28_13-15-27.356210,"93.45,67.52"
2024-05-28_13-15-27.388934,"99.62,97.74"
2024-05-28_13-15-27.421688,"89.42,79.23"
2024-05-28_13-15-27.454543,"79.67,72.47"
2024-05-28_13-15-27.487131,"75.14,83.83"
2024-05-28_13-15-27.520005,"71.01,81.45"
2024-05-28_13-15-27.548623,"100.58,60.04"
2024-05-28_13-15-27.581419,"89.61,73.01"
2024-05-28_13-15-27.614284,"80.83,96.15"
2024-05-28_13-15-27.647698,"96.01,77.57"
2024-05-28_13-15-27.679693,"80.24,67.07"
2024-05-28_13-15-27.712650,"75.86,62.70"
2024-05-28_13-15-27.745161,"92.58,85.11"
2024-05-28_13-15-27.773926,"88.46,86.56"
2024-05-28_13-15-27.806707,"84.30,76.91"
2024-05-28_13-15-27.839531,"75.88,82.16"
2024-05-28_13-15-27.872243,"88.60,70.17"
2024-05-28_13-15-27.905048,"85.71,73.98"
2024-05-28_13-15-27.937691,"90.72,75.05"
2024-05-28_13-15-27.970645,"74.61,67.01"
2024-05-28_13-15-27.999211,"82.91,73.42"
2024-05-28_13-15-28.032011,"83.59,52.91"
2024-05-28_13-15-28.064759,"92.10,83.56"
2024-05-28_13-15-28.097495,"97.88,84.24"
2024-05-28_13-15-28.130277,"75.93,71.76"
2024-05-28_13-15-28.163467,"90.19,73.01"
2024-05-28_13-15-28.195697,"84.92,74.78"
2024-05-28_13-15-28.224631,"95.88,66.37"
2024-05-28_13-15-28.257299,"90.39,58.49"
2024-05-28_13-15-28.290167,"82.14,49.33"
2024-05-28_13-15-28.322824,"74.87,67.49"
2024-05-28_13-15-28.355576,"97.30,91.17"
2024-05-28_13-15-28.388317,"85.08,69.86"
2024-05-28_13-15-28.420967,"90.40,84.47"
2024-05-28_13-15-28.449775,"79.62,71.45"
2024-05-28_13-15-28.482483,"75.35,83.00"
2024-05-28_13-15-28.515321,"98.26,83.71"
2024-05-28_13-15-28.548076,"86.04,72.43"
2024-05-28_13-15-28.580775,"94.62,55.43"
2024-05-28_13-15-28.613582,"75.05,69.70"
2024-05-28_13-15-28.646239,"81.85,84.58"
2024-05-28_13-15-28.675054,"85.42,89.39"
2024-05-28_13-15-28.707863,"88.42,83.53"
2024-05-28_13-15-28.740589,"71.85,81.03"
2024-05-28_13-15-28.773332,"86.08,69.40"
2024-05-28_13-15-28.806217,"83.06,56.41"
2024-05-28_13-15-28.838857,"107.34,70.30"
2024-05-28_13-15-28.871496,"77.63,59.84"
2024-05-28_13-15-28.900290,"86.63,66.72"
2024-05-28_13-15-28.933389,"71.13,69.54"
2024-05-28_13-15-28.965942,"80.18,77.45"
2024-05-28_13-15-28.998728,"95.06,93.22"
2024-05-28_13-15-29.031326,"68.07,83.45"
2024-05-28_13-15-29.064226,"80.22,83.46"
2024-05-28_13-15-29.096757,"79.09,86.28"
2024-05-28_13-15-29.129587,"74.82,70.10"
2024-05-28_13-15-29.158347,"72.36,76.76"
2024-05-28_13-15-29.191122,"91.54,77.72"
2024-05-28_13-15-29.223859,"62.39,76.81"
2024-05-28_13-15-29.256731,"89.54,68.95"
2024-05-28_13-15-29.290480,"84.24,83.14"
2024-05-28_13-15-29.322203,"70.72,94.64"
2024-05-28_13-15-29.354742,"46.96,91.97"
2024-05-28_13-15-29.383616,"86.21,83.18"
2024-05-28_13-15-29.416415,"69.77,78.23"
2024-05-28_13-15-29.449172,"83.01,75.26"
2024-05-28_13-15-29.481969,"87.50,55.49"
2024-05-28_13-15-29.514625,"92.69,72.81"
2024-05-28_13-15-29.547444,"69.99,80.66"
2024-05-28_13-15-29.580024,"82.30,60.93"
2024-05-28_13-15-29.608926,"88.23,68.44"
2024-05-28_13-15-29.641759,"78.34,82.33"
2024-05-28_13-15-29.674536,"89.68,98.61"
2024-05-28_13-15-29.707208,"90.63,74.45"
2024-05-28_13-15-29.740023,"100.16,73.11"
2024-05-28_13-15-29.772651,"81.14,56.48"
2024-05-28_13-15-29.805348,"81.29,70.07"
2024-05-28_13-15-29.834151,"88.51,69.27"
2024-05-28_13-15-29.866929,"64.34,73.88"
2024-05-28_13-15-29.899705,"88.48,80.95"
2024-05-28_13-15-29.932415,"97.62,75.77"
2024-05-28_13-15-29.965230,"85.15,85.95"
2024-05-28_13-15-29.997939,"86.71,83.79"
2024-05-28_13-15-30.030670,"94.62,81.74"
2024-05-28_13-15-30.059468,"89.78,71.19"
2024-05-28_13-15-30.092249,"98.44,57.56"
2024-05-28_13-15-30.124966,"95.74,54.22"
2024-05-28_13-15-30.157803,"74.44,60.91"
2024-05-28_13-15-30.190494,"63.88,54.59"
2024-05-28_13-15-30.223237,"94.08,69.97"
2024-05-28_13-15-30.255845,"98.50,96.73"
2024-05-28_13-15-30.284704,"71.77,73.69"
2024-05-28_13-15-30.317459,"94.54,76.97"
2024-05-28_13-15-30.350402,"109.25,69.39"
2024-05-28_13-15-30.383006,"88.17,81.39"
2024-05-28_13-15-30.415761,"97.06,61.34"
2024-05-28_13-15-30.448424,"69.62,76.51"
2024-05-28_13-15-30.481262,"91.13,75.66"
2024-05-28_13-15-30.509958,"87.67,66.69"
2024-05-28_13-15-30.542727,"80.29,78.82"
2024-05-28_13-15-30.575468,"80.28,82.74"
2024-05-28_13-15-30.608366,"83.29,71.34"
2024-05-28_13-15-30.641046,"82.58,86.37"
2024-05-28_13-15-30.673703,"88.15,61.46"
2024-05-28_13-15-30.706470,"105.34,55.86"
2024-05-28_13-15-30.735241,"90.03,51.68"
2024-05-28_13-15-30.768008,"80.56,84.20"
2024-05-28_13-15-30.800813,"75.45,66.84"
2024-05-28_13-15-30.833537,"87.07,81.33"
2024-05-28_13-15-30.866339,"81.59,78.57"
2024-05-28_13-15-30.899011,"67.01,90.95"
2024-05-28_13-15-30.931668,"96.36,74.82"
2024-05-28_13-15-30.960464,"79.76,78.26"
2024-05-28_13-15-30.993391,"96.72,70.64"
2024-05-28_13-15-31.026116,"68.35,70.80"
2024-05-28_13-15-31.058834,"79.66,69.25"
2024-05-28_13-15-31.091612,"91.29,71.46"
2024-05-28_13-15-31.124357,"87.58,66.86"
2024-05-28_13-15-31.156977,"87.82,92.23"
2024-05-28_13-15-31.185779,"79.33,76.28"
2024-05-28_13-15-31.218633,"85.49,86.31"
2024-05-28_13-15-31.251287,"92.41,81.54"
2024-05-28_13-15-31.284066,"94.28,63.08"
2024-05-28_13-15-31.316894,"92.99,56.36"
2024-05-28_13-15-31.349618,"87.83,49.21"
2024-05-28_13-15-31.382258,"74.16,75.29"
2024-05-28_13-15-31.411065,"97.19,81.27"
2024-05-28_13-15-31.443988,"92.45,86.91"
2024-05-28_13-15-31.476568,"89.97,81.23"
2024-05-28_13-15-31.509405,"73.80,73.13"
2024-05-28_13-15-31.542139,"92.89,78.17"
2024-05-28_13-15-31.574970,"101.86,83.45"
2024-05-28_13-15-31.607646,"97.06,64.71"
2024-05-28_13-15-31.640333,"106.09,62.06"
2024-05-28_13-15-31.669108,"88.86,67.78"
2024-05-28_13-15-31.701903,"81.23,77.12"
2024-05-28_13-15-31.734672,"80.11,91.24"
2024-05-28_13-15-31.767404,"77.90,82.77"
2024-05-28_13-15-31.800231,"77.66,83.06"
2024-05-28_13-15-31.832950,"81.06,81.42"
2024-05-28_13-15-31.865655,"83.79,71.40"
2024-05-28_13-15-31.894405,"90.07,80.52"
2024-05-28_13-15-31.927140,"86.74,66.19"
2024-05-28_13-15-31.959929,"88.78,51.01"
2024-05-28_13-15-31.992728,"59.18,79.08"
2024-05-28_13-15-32.025621,"81.85,68.41"
2024-05-28_13-15-32.058152,"82.81,70.69"
2024-05-28_13-15-32.090834,"80.67,95.85"
2024-05-28_13-15-32.119686,"84.08,79.28"
2024-05-28_13-15-32.152476,"82.99,86.85"
2024-05-28_13-15-32.185173,"79.91,62.92"
2024-05-28_13-15-32.217985,"102.84,71.50"
2024-05-28_13-15-32.250784,"94.55,58.73"
2024-05-28_13-15-32.283480,"80.72,68.81"
2024-05-28_13-15-32.316204,"91.49,70.37"
2024-05-28_13-15-32.344929,"92.22,45.82"
2024-05-28_13-15-32.377702,"98.49,89.32"
2024-05-28_13-15-32.410454,"88.18,78.72"
2024-05-28_13-15-32.443263,"82.29,83.00"
2024-05-28_13-15-32.476001,"91.52,86.07"
2024-05-28_13-15-32.508691,"93.25,71.03"
2024-05-28_13-15-32.541367,"78.03,69.24"
2024-05-28_13-15-32.570269,"89.85,76.35"
2024-05-28_13-15-32.603016,"72.48,58.43"
2024-05-28_13-15-32.636255,"83.80,87.59"
2024-05-28_13-15-32.668547,"92.19,83.20"
2024-05-28_13-15-32.701316,"99.93,83.99"
2024-05-28_13-15-32.733919,"98.63,90.73"
2024-05-28_13-15-32.766667,"70.35,71.22"
2024-05-28_13-15-32.795487,"92.71,84.54"
2024-05-28_13-15-32.828433,"89.56,85.62"
2024-05-28_13-15-32.861050,"88.73,75.42"
2024-05-28_13-15-32.893850,"96.07,71.11"
2024-05-28_13-15-32.926510,"77.55,71.70"
2024-05-28_13-15-32.959271,"89.40,87.20"
2024-05-28_13-15-32.991984,"87.49,95.89"
2024-05-28_13-15-33.020811,"69.50,88.41"
2024-05-28_13-15-33.053488,"88.37,76.58"
2024-05-28_13-15-33.086270,"95.33,69.60"
2024-05-28_13-15-33.119097,"84.03,70.95"
2024-05-28_13-15-33.151796,"92.11,56.86"
2024-05-28_13-15-33.184578,"91.43,85.98"
2024-05-28_13-15-33.217393,"88.54,65.43"
2024-05-28_13-15-33.246052,"103.01,82.23"
2024-05-28_13-15-33.278988,"77.98,64.32"
2024-05-28_13-15-33.311598,"90.92,90.52"
2024-05-28_13-15-33.344388,"84.36,75.44"
2024-05-28_13-15-33.377142,"84.87,79.13"
2024-05-28_13-15-33.409840,"96.08,63.36"
2024-05-28_13-15-33.442536,"93.20,62.33"
2024-05-28_13-15-33.471270,"85.13,54.45"
2024-05-28_13-15-33.504057,"77.54,84.95"
2024-05-28_13-15-33.536844,"93.08,66.89"
2024-05-28_13-15-33.569656,"98.57,42.26"
2024-05-28_13-15-33.602360,"72.78,96.85"
2024-05-28_13-15-33.635153,"63.17,84.02"
2024-05-28_13-15-33.667750,"89.71,73.99"
2024-05-28_13-15-33.696793,"84.82,83.84"
2024-05-28_13-15-33.729375,"85.68,71.46"
2024-05-28_13-15-33.762080,"94.02,67.98"
2024-05-28_13-15-33.794851,"87.92,65.82"
2024-05-28_13-15-33.827654,"81.60,63.12"
2024-05-28_13-15-33.860387,"93.84,83.54"
2024-05-28_13-15-33.893039,"91.44,90.89"
2024-05-28_13-15-33.921812,"85.31,78.26"
2024-05-28_13-15-33.954607,"103.86,84.85"
2024-05-28_13-15-33.987416,"95.78,67.76"
2024-05-28_13-15-34.021670,"85.45,79.64"
2024-05-28_13-15-34.056752,"94.16,80.09"
2024-05-28_13-15-34.085731,"81.92,69.23"
2024-05-28_13-15-34.118292,"99.09,85.02"
2024-05-28_13-15-34.150998,"84.71,85.95"
2024-05-28_13-15-34.179832,"83.38,76.62"
2024-05-28_13-15-34.212807,"98.53,83.68"
2024-05-28_13-15-34.245382,"85.91,74.03"
2024-05-28_13-15-34.278199,"88.50,82.98"
2024-05-28_13-15-34.310958,"86.69,69.95"
2024-05-28_13-15-34.343632,"91.52,53.10"
2024-05-28_13-15-34.376280,"96.19,57.77"
2024-05-28_13-15-34.405277,"79.00,86.82"
2024-05-28_13-15-34.437878,"58.17,61.86"
2024-05-28_13-15-34.470739,"82.14,94.02"
2024-05-28_13-15-34.503446,"74.86,87.64"
2024-05-28_13-15-34.536258,"83.01,85.19"
2024-05-28_13-15-34.568836,"81.05,60.27"
2024-05-28_13-15-34.601854,"77.48,81.61"
2024-05-28_13-15-34.630401,"95.78,84.12"
2024-05-28_13-15-34.663256,"94.95,56.64"
2024-05-28_13-15-34.695954,"79.20,53.58"
2024-05-28_13-15-34.728786,"76.02,84.25"
2024-05-28_13-15-34.761457,"90.23,71.55"
2024-05-28_13-15-34.794249,"90.54,44.23"
2024-05-28_13-15-34.826827,"69.77,99.46"
2024-05-28_13-15-34.855622,"80.48,86.78"
2024-05-28_13-15-34.888384,"62.40,71.33"
2024-05-28_13-15-34.921166,"89.21,81.22"
2024-05-28_13-15-34.953968,"90.12,81.54"
2024-05-28_13-15-34.986799,"82.24,51.37"
2024-05-28_13-15-35.019430,"78.43,64.64"
2024-05-28_13-15-35.052103,"91.43,75.94"
2024-05-28_13-15-35.080946,"87.82,55.27"
2024-05-28_13-15-35.113740,"85.49,92.30"
2024-05-28_13-15-35.146540,"88.97,76.63"
2024-05-28_13-15-35.179233,"95.82,80.95"
2024-05-28_13-15-35.212005,"88.50,86.59"
2024-05-28_13-15-35.244728,"82.04,62.79"
2024-05-28_13-15-35.277382,"97.37,80.41"
2024-05-28_13-15-35.306224,"79.30,67.72"
2024-05-28_13-15-35.339026,"72.46,75.47"
2024-05-28_13-15-35.371747,"76.52,81.33"
2024-05-28_13-15-35.404526,"91.31,75.00"
2024-05-28_13-15-35.437245,"94.51,87.18"
2024-05-28_13-15-35.470035,"80.30,77.75"
2024-05-28_13-15-35.502678,"95.45,85.25"
2024-05-28_13-15-35.531532,"90.65,82.34"
2024-05-28_13-15-35.564218,"83.37,69.22"
2024-05-28_13-15-35.597031,"104.02,50.92"
2024-05-28_13-15-35.629830,"71.25,88.36"
2024-05-28_13-15-35.662636,"86.72,67.33"
2024-05-28_13-15-35.695213,"90.60,54.31"
2024-05-28_13-15-35.728069,"89.56,76.10"
2024-05-28_13-15-35.756794,"91.88,84.26"
2024-05-28_13-15-35.789557,"90.05,88.43"
2024-05-28_13-15-35.822327,"69.26,75.18"
2024-05-28_13-15-35.855150,"106.92,65.48"
2024-05-28_13-15-35.887834,"94.58,78.34"
2024-05-28_13-15-35.920546,"83.77,52.48"
2024-05-28_13-15-35.953275,"73.39,73.58"
2024-05-28_13-15-35.982054,"66.41,53.74"
2024-05-28_13-15-36.014901,"94.69,88.69"
2024-05-28_13-15-36.047606,"80.82,87.43"
2024-05-28_13-15-36.080362,"61.68,85.65"
2024-05-28_13-15-36.113109,"92.00,82.68"
2024-05-28_13-15-36.145772,"80.39,66.87"
2024-05-28_13-15-36.178866,"82.55,81.21"
2024-05-28_13-15-36.207486,"95.21,69.83"
2024-05-28_13-15-36.240498,"67.04,85.49"
2024-05-28_13-15-36.272883,"79.89,83.17"
2024-05-28_13-15-36.305859,"81.02,80.14"
2024-05-28_13-15-36.338438,"70.98,76.69"
2024-05-28_13-15-36.371080,"90.46,94.59"
2024-05-28_13-15-36.403784,"76.31,72.44"
2024-05-28_13-15-36.432577,"91.44,78.49"
2024-05-28_13-15-36.465388,"84.39,91.08"
2024-05-28_13-15-36.498130,"98.08,64.97"
2024-05-28_13-15-36.530883,"98.20,62.41"
2024-05-28_13-15-36.563629,"73.22,72.50"
2024-05-28_13-15-36.596422,"75.85,80.62"
2024-05-28_13-15-36.629072,"96.57,86.52"
2024-05-28_13-15-36.658000,"77.99,78.06"
2024-05-28_13-15-36.690634,"79.60,89.40"
2024-05-28_13-15-36.723474,"75.13,74.95"
2024-05-28_13-15-36.756177,"77.89,83.34"
2024-05-28_13-15-36.789027,"90.41,62.45"
2024-05-28_13-15-36.821710,"89.92,70.59"
2024-05-28_13-15-36.854320,"89.77,83.41"
2024-05-28_13-15-36.883242,"65.22,53.89"
2024-05-28_13-15-36.915886,"87.42,64.92"
2024-05-28_13-15-36.948941,"95.37,80.39"
2024-05-28_13-15-36.981412,"82.13,85.05"
2024-05-28_13-15-37.014260,"78.88,80.38"
2024-05-28_13-15-37.046979,"89.81,74.03"
2024-05-28_13-15-37.079663,"100.40,50.21"
2024-05-28_13-15-37.108413,"95.42,85.59"
2024-05-28_13-15-37.141247,"72.90,86.05"
2024-05-28_13-15-37.173990,"79.64,81.89"
2024-05-28_13-15-37.206721,"88.83,61.91"
2024-05-28_13-15-37.239483,"91.12,89.82"
2024-05-28_13-15-37.272196,"90.66,77.60"
2024-05-28_13-15-37.305142,"88.38,78.16"
2024-05-28_13-15-37.337572,"60.64,91.21"
2024-05-28_13-15-37.366458,"89.70,64.98"
2024-05-28_13-15-37.399275,"89.27,83.15"
2024-05-28_13-15-37.431980,"95.32,61.09"
2024-05-28_13-15-37.464798,"92.95,51.50"
2024-05-28_13-15-37.497533,"76.81,68.07"
2024-05-28_13-15-37.530148,"90.97,77.61"
2024-05-28_13-15-37.562861,"93.91,71.74"
2024-05-28_13-15-37.591721,"98.70,84.70"
2024-05-28_13-15-37.624548,"68.95,75.33"
2024-05-28_13-15-37.657267,"94.23,75.69"
2024-05-28_13-15-37.690113,"90.95,86.53"
2024-05-28_13-15-37.722800,"82.74,64.93"
2024-05-28_13-15-37.755511,"85.87,70.21"
2024-05-28_13-15-37.788155,"93.90,53.17"
2024-05-28_13-15-37.816990,"83.74,60.34"
2024-05-28_13-15-37.849797,"85.97,91.17"
2024-05-28_13-15-37.882502,"86.74,89.98"
2024-05-28_13-15-37.915344,"80.16,82.43"
2024-05-28_13-15-37.948026,"73.41,73.79"
2024-05-28_13-15-37.980735,"87.07,80.90"
2024-05-28_13-15-38.013432,"84.89,75.50"
2024-05-28_13-15-38.042268,"95.99,52.88"
2024-05-28_13-15-38.075039,"84.99,56.71"
2024-05-28_13-15-38.107775,"79.96,68.74"
2024-05-28_13-15-38.144614,"79.24,69.18"
2024-05-28_13-15-38.173354,"84.41,72.37"
2024-05-28_13-15-38.206091,"83.30,88.19"
2024-05-28_13-15-38.238706,"57.57,76.68"
2024-05-28_13-15-38.267773,"79.25,87.39"
2024-05-28_13-15-38.300321,"93.59,64.88"
2024-05-28_13-15-38.333154,"92.52,57.60"
2024-05-28_13-15-38.365854,"85.75,78.74"
2024-05-28_13-15-38.399190,"84.48,73.67"
2024-05-28_13-15-38.431289,"65.11,73.18"
2024-05-28_13-15-38.464053,"87.66,64.11"
2024-05-28_13-15-38.492852,"98.51,96.14"
2024-05-28_13-15-38.525533,"62.27,88.88"
2024-05-28_13-15-38.558282,"82.21,83.16"
2024-05-28_13-15-38.591204,"91.71,78.44"
2024-05-28_13-15-38.623961,"90.85,69.42"
2024-05-28_13-15-38.656537,"84.09,62.51"
2024-05-28_13-15-38.689258,"88.00,61.10"
2024-05-28_13-15-38.718009,"85.56,56.31"
2024-05-28_13-15-38.750808,"75.87,89.16"
2024-05-28_13-15-38.783538,"87.46,77.38"
2024-05-28_13-15-38.816353,"92.09,73.33"
2024-05-28_13-15-38.849102,"85.46,86.77"
2024-05-28_13-15-38.881814,"79.45,71.75"
2024-05-28_13-15-38.914517,"83.55,78.91"
2024-05-28_13-15-38.943287,"83.82,71.51"
2024-05-28_13-15-38.976103,"81.99,64.12"
2024-05-28_13-15-39.008852,"86.33,93.56"
2024-05-28_13-15-39.041605,"61.44,57.65"
2024-05-28_13-15-39.074353,"94.64,90.25"
2024-05-28_13-15-39.107135,"99.78,71.40"
2024-05-28_13-15-39.139816,"89.04,87.97"
2024-05-28_13-15-39.168562,"81.78,76.75"
2024-05-28_13-15-39.201334,"77.57,68.41"
2024-05-28_13-15-39.234110,"80.57,79.74"
2024-05-28_13-15-39.266901,"85.27,72.01"
2024-05-28_13-15-39.299634,"98.47,69.27"
2024-05-28_13-15-39.332397,"92.91,79.10"
2024-05-28_13-15-39.365161,"60.56,63.37"
2024-05-28_13-15-39.395985,"95.54,100.95"
2024-05-28_13-15-39.426836,"88.52,96.55"
2024-05-28_13-15-39.459426,"80.56,80.14"
2024-05-28_13-15-39.492167,"81.90,79.52"
2024-05-28_13-15-39.524943,"85.07,71.03"
2024-05-28_13-15-39.557722,"83.34,77.22"
2024-05-28_13-15-39.590377,"95.81,56.13"
2024-05-28_13-15-39.619128,"95.81,54.59"
2024-05-28_13-15-39.651891,"77.64,53.29"
2024-05-28_13-15-39.684646,"90.90,92.75"
2024-05-28_13-15-39.717441,"83.35,74.90"
2024-05-28_13-15-39.750521,"83.01,82.30"
2024-05-28_13-15-39.783001,"82.61,75.78"
2024-05-28_13-15-39.815649,"79.21,73.41"
2024-05-28_13-15-39.844384,"80.09,71.20"
2024-05-28_13-15-39.877178,"89.18,82.02"
2024-05-28_13-15-39.909938,"92.55,53.88"
2024-05-28_13-15-39.942680,"85.23,53.29"
2024-05-28_13-15-39.975514,"72.75,77.79"
2024-05-28_13-15-40.008260,"97.86,86.60"
2024-05-28_13-15-40.040924,"93.45,86.38"
2024-05-28_13-15-40.069716,"96.39,81.42"
2024-05-28_13-15-40.102445,"76.79,72.70"
2024-05-28_13-15-40.135227,"85.82,76.29"
2024-05-28_13-15-40.167973,"94.29,84.14"
2024-05-28_13-15-40.200796,"77.31,69.61"
2024-05-28_13-15-40.233508,"101.71,51.79"
2024-05-28_13-15-40.266193,"80.61,53.72"
2024-05-28_13-15-40.298911,"85.30,80.79"
2024-05-28_13-15-40.327757,"83.65,85.55"
2024-05-28_13-15-40.360471,"78.34,66.82"
2024-05-28_13-15-40.393234,"73.29,78.02"
2024-05-28_13-15-40.425983,"80.66,72.37"
2024-05-28_13-15-40.458795,"83.94,81.89"
2024-05-28_13-15-40.491489,"88.33,80.88"
2024-05-28_13-15-40.524175,"84.75,67.70"
2024-05-28_13-15-40.552929,"93.01,68.57"
2024-05-28_13-15-40.585801,"72.13,79.68"
2024-05-28_13-15-40.618549,"83.65,82.87"
2024-05-28_13-15-40.651517,"103.61,82.58"
2024-05-28_13-15-40.684156,"79.64,79.93"
2024-05-28_13-15-40.716797,"61.22,84.43"
2024-05-28_13-15-40.749495,"87.59,82.73"
2024-05-28_13-15-40.778262,"76.67,70.19"
2024-05-28_13-15-40.811070,"95.75,70.18"
2024-05-28_13-15-40.843804,"92.91,56.03"
2024-05-28_13-15-40.876550,"90.46,46.73"
2024-05-28_13-15-40.909335,"68.66,75.82"
2024-05-28_13-15-40.942032,"90.48,75.47"
2024-05-28_13-15-40.974763,"82.98,72.15"
2024-05-28_13-15-41.003588,"87.82,76.43"
2024-05-28_13-15-41.036328,"87.53,82.15"
2024-05-28_13-15-41.069093,"82.33,79.25"
2024-05-28_13-15-41.101794,"88.28,70.15"
2024-05-28_13-15-41.134588,"81.71,82.25"
2024-05-28_13-15-41.167326,"91.32,55.92"
2024-05-28_13-15-41.200027,"70.19,80.47"
2024-05-28_13-15-41.228816,"96.48,86.05"
2024-05-28_13-15-41.261589,"93.17,63.02"
2024-05-28_13-15-41.294299,"90.64,84.35"
2024-05-28_13-15-41.327090,"91.22,83.63"
2024-05-28_13-15-41.359880,"74.02,70.70"
2024-05-28_13-15-41.392596,"87.80,79.94"
2024-05-28_13-15-41.425333,"88.17,71.52"
2024-05-28_13-15-41.454070,"87.17,46.81"
2024-05-28_13-15-41.486866,"93.43,73.40"
2024-05-28_13-15-41.519622,"52.19,78.80"
2024-05-28_13-15-41.552387,"93.92,87.00"
2024-05-28_13-15-41.585127,"90.65,90.74"
2024-05-28_13-15-41.617871,"87.77,83.01"
2024-05-28_13-15-41.650642,"84.58,77.67"
2024-05-28_13-15-41.679410,"89.51,70.36"
2024-05-28_13-15-41.712097,"87.09,59.44"
2024-05-28_13-15-41.744890,"85.60,72.37"
2024-05-28_13-15-41.777660,"102.18,70.12"
2024-05-28_13-15-41.810428,"72.00,97.61"
2024-05-28_13-15-41.843155,"80.31,80.03"
2024-05-28_13-15-41.875868,"91.39,91.41"
2024-05-28_13-15-41.904629,"89.55,88.98"
2024-05-28_13-15-41.937404,"72.77,72.80"
2024-05-28_13-15-41.970156,"89.73,79.02"
2024-05-28_13-15-42.002940,"81.82,72.20"
2024-05-28_13-15-42.035714,"82.22,78.18"
2024-05-28_13-15-42.068560,"109.83,56.59"
2024-05-28_13-15-42.101156,"74.00,73.76"
2024-05-28_13-15-42.129995,"68.47,76.45"
2024-05-28_13-15-42.163468,"97.76,86.26"
2024-05-28_13-15-42.195580,"91.40,74.10"
2024-05-28_13-15-42.228220,"61.70,81.24"
2024-05-28_13-15-42.261047,"75.18,71.31"
2024-05-28_13-15-42.293693,"87.26,78.60"
2024-05-28_13-15-42.326465,"89.30,72.99"
2024-05-28_13-15-42.355230,"91.98,68.95"
2024-05-28_13-15-42.387963,"96.01,61.96"
2024-05-28_13-15-42.420705,"73.26,82.88"
2024-05-28_13-15-42.453439,"76.84,83.37"
2024-05-28_13-15-42.486221,"98.71,96.03"
2024-05-28_13-15-42.519004,"76.86,68.39"
2024-05-28_13-15-42.551685,"76.63,78.50"
2024-05-28_13-15-42.580412,"84.03,72.01"
2024-05-28_13-15-42.613227,"81.49,76.98"
2024-05-28_13-15-42.645992,"94.82,84.65"
2024-05-28_13-15-42.678756,"85.11,70.32"
2024-05-28_13-15-42.711520,"97.44,51.81"
2024-05-28_13-15-42.744431,"65.88,89.98"
2024-05-28_13-15-42.777010,"85.71,83.47"
2024-05-28_13-15-42.805720,"77.36,81.37"
2024-05-28_13-15-42.838570,"77.80,76.67"
2024-05-28_13-15-42.871257,"77.67,78.78"
2024-05-28_13-15-42.904164,"83.17,70.34"
2024-05-28_13-15-42.936937,"91.47,75.70"
2024-05-28_13-15-42.969586,"92.42,65.82"
2024-05-28_13-15-43.002249,"95.29,52.02"
2024-05-28_13-15-43.034954,"81.92,77.96"
2024-05-28_13-15-43.063738,"90.61,90.05"
2024-05-28_13-15-43.096532,"92.62,68.26"
2024-05-28_13-15-43.129310,"100.41,83.74"
2024-05-28_13-15-43.162095,"70.06,73.52"
2024-05-28_13-15-43.194872,"81.28,76.98"
2024-05-28_13-15-43.227674,"96.61,85.57"
2024-05-28_13-15-43.260220,"94.02,57.98"
2024-05-28_13-15-43.289030,"94.78,54.22"
2024-05-28_13-15-43.321911,"89.25,60.67"
2024-05-28_13-15-43.354697,"69.32,54.32"
2024-05-28_13-15-43.387382,"74.47,60.51"
2024-05-28_13-15-43.420195,"92.16,91.77"
2024-05-28_13-15-43.452825,"80.88,81.96"
2024-05-28_13-15-43.485516,"79.05,72.11"
2024-05-28_13-15-43.514455,"83.68,81.29"
2024-05-28_13-15-43.547144,"92.66,80.43"
2024-05-28_13-15-43.579946,"87.97,77.74"
2024-05-28_13-15-43.612627,"93.04,53.75"
2024-05-28_13-15-43.645368,"74.01,76.77"
2024-05-28_13-15-43.678165,"81.04,78.67"
2024-05-28_13-15-43.710804,"100.25,89.46"
2024-05-28_13-15-43.739600,"76.08,67.09"
2024-05-28_13-15-43.772370,"83.22,75.54"
2024-05-28_13-15-43.805084,"89.09,83.31"
2024-05-28_13-15-43.837914,"77.44,70.18"
2024-05-28_13-15-43.870676,"92.47,82.35"
2024-05-28_13-15-43.903365,"90.87,56.02"
2024-05-28_13-15-43.936083,"95.40,46.00"
2024-05-28_13-15-43.965000,"71.39,77.89"
2024-05-28_13-15-43.997715,"86.55,76.66"
2024-05-28_13-15-44.030414,"81.03,81.48"
2024-05-28_13-15-44.063220,"83.51,79.37"
2024-05-28_13-15-44.096024,"85.50,82.44"
2024-05-28_13-15-44.128637,"81.48,79.51"
2024-05-28_13-15-44.161357,"83.24,67.63"
2024-05-28_13-15-44.190091,"81.58,80.67"
2024-05-28_13-15-44.223040,"95.67,56.36"
2024-05-28_13-15-44.255722,"68.72,67.27"
2024-05-28_13-15-44.288505,"90.74,88.25"
2024-05-28_13-15-44.321204,"92.38,65.29"
2024-05-28_13-15-44.353976,"87.22,83.76"
2024-05-28_13-15-44.386599,"88.54,84.09"
2024-05-28_13-15-44.415642,"81.42,71.48"
2024-05-28_13-15-44.448165,"86.59,80.18"
2024-05-28_13-15-44.480973,"84.24,71.23"
2024-05-28_13-15-44.513739,"90.00,78.15"
2024-05-28_13-15-44.546447,"99.53,58.44"
2024-05-28_13-15-44.579215,"54.18,81.63"
2024-05-28_13-15-44.611878,"90.76,91.60"
2024-05-28_13-15-44.640652,"79.43,75.43"
2024-05-28_13-15-44.673514,"86.33,81.99"
2024-05-28_13-15-44.706294,"80.56,79.18"
2024-05-28_13-15-44.739051,"88.62,71.26"
2024-05-28_13-15-44.771788,"85.30,70.51"
2024-05-28_13-15-44.804450,"85.40,71.97"
2024-05-28_13-15-44.837188,"103.69,70.35"
2024-05-28_13-15-44.865937,"75.92,58.34"
2024-05-28_13-15-44.898729,"82.81,74.84"
2024-05-28_13-15-44.931477,"95.08,81.09"
2024-05-28_13-15-44.964253,"84.20,78.99"
2024-05-28_13-15-44.997020,"71.47,72.83"
2024-05-28_13-15-45.029765,"88.83,78.32"
2024-05-28_13-15-45.062481,"78.86,71.52"
2024-05-28_13-15-45.091201,"84.78,77.77"
2024-05-28_13-15-45.123985,"101.61,71.57"
2024-05-28_13-15-45.156786,"73.92,84.21"
2024-05-28_13-15-45.189494,"81.57,75.61"
2024-05-28_13-15-45.222461,"79.13,82.18"
2024-05-28_13-15-45.255115,"83.88,90.85"
2024-05-28_13-15-45.287756,"88.36,83.52"
2024-05-28_13-15-45.316494,"72.88,86.62"
2024-05-28_13-15-45.349300,"81.86,69.23"
2024-05-28_13-15-45.382003,"92.18,71.95"
2024-05-28_13-15-45.414826,"92.94,55.71"
2024-05-28_13-15-45.447581,"89.58,47.68"
2024-05-28_13-15-45.480320,"86.87,83.50"
2024-05-28_13-15-45.513050,"91.47,77.22"
2024-05-28_13-15-45.541774,"91.70,85.88"
2024-05-28_13-15-45.574527,"85.34,76.97"
2024-05-28_13-15-45.607288,"82.10,89.03"
2024-05-28_13-15-45.640064,"98.62,89.61"
2024-05-28_13-15-45.672932,"88.60,54.11"
2024-05-28_13-15-45.705588,"91.82,83.76"
2024-05-28_13-15-45.738293,"91.16,65.14"
2024-05-28_13-15-45.770997,"94.70,60.77"
2024-05-28_13-15-45.799829,"83.48,75.39"
2024-05-28_13-15-45.832640,"81.64,105.05"
2024-05-28_13-15-45.865376,"74.34,97.71"
2024-05-28_13-15-45.898106,"58.70,75.50"
2024-05-28_13-15-45.930870,"72.11,87.10"
2024-05-28_13-15-45.963583,"70.71,77.83"
2024-05-28_13-15-45.996314,"101.39,63.25"
2024-05-28_13-15-46.025085,"92.04,66.43"
2024-05-28_13-15-46.057899,"81.40,67.48"
2024-05-28_13-15-46.090625,"75.82,75.35"
2024-05-28_13-15-46.123404,"85.46,69.87"
2024-05-28_13-15-46.156153,"92.60,76.22"
2024-05-28_13-15-46.188884,"82.63,82.35"
2024-05-28_13-15-46.221558,"79.09,74.00"
2024-05-28_13-15-46.250336,"56.87,81.60"
2024-05-28_13-15-46.283133,"94.00,63.85"
2024-05-28_13-15-46.315883,"89.17,60.42"
2024-05-28_13-15-46.348661,"78.10,63.86"
2024-05-28_13-15-46.381426,"79.37,66.90"
2024-05-28_13-15-46.414207,"79.19,70.04"
2024-05-28_13-15-46.446879,"78.11,74.54"
2024-05-28_13-15-46.475957,"86.37,83.04"
2024-05-28_13-15-46.508445,"78.65,76.16"
2024-05-28_13-15-46.541169,"80.93,95.12"
2024-05-28_13-15-46.573958,"83.15,77.11"
2024-05-28_13-15-46.606720,"90.01,68.91"
2024-05-28_13-15-46.639456,"85.53,71.22"
2024-05-28_13-15-46.672223,"76.24,74.84"
2024-05-28_13-15-46.700956,"62.80,80.99"
2024-05-28_13-15-46.733678,"94.64,80.85"
2024-05-28_13-15-46.766433,"87.80,70.85"
2024-05-28_13-15-46.799206,"84.22,78.00"
2024-05-28_13-15-46.831962,"95.54,84.57"
2024-05-28_13-15-46.864693,"77.08,99.01"
2024-05-28_13-15-46.897414,"84.60,65.67"
2024-05-28_13-15-46.926165,"87.42,60.87"
2024-05-28_13-15-46.958941,"107.38,74.77"
2024-05-28_13-15-46.991690,"92.20,69.68"
2024-05-28_13-15-47.024461,"75.88,81.94"
2024-05-28_13-15-47.057248,"96.41,89.14"
2024-05-28_13-15-47.089965,"90.99,74.81"
2024-05-28_13-15-47.122675,"72.34,76.47"
2024-05-28_13-15-47.151430,"88.72,83.18"
2024-05-28_13-15-47.184247,"72.66,91.63"
2024-05-28_13-15-47.216985,"94.14,68.02"
2024-05-28_13-15-47.249757,"82.41,82.47"
2024-05-28_13-15-47.282541,"97.67,56.23"
2024-05-28_13-15-47.315248,"78.78,71.83"
2024-05-28_13-15-47.347939,"76.59,88.14"
2024-05-28_13-15-47.376735,"96.71,83.49"
2024-05-28_13-15-47.409491,"75.35,81.50"
2024-05-28_13-15-47.442249,"88.13,83.79"
2024-05-28_13-15-47.475054,"81.73,71.21"
2024-05-28_13-15-47.507947,"88.74,75.02"
2024-05-28_13-15-47.540528,"90.75,63.26"
2024-05-28_13-15-47.573229,"90.94,47.04"
2024-05-28_13-15-47.602097,"93.97,57.19"
2024-05-28_13-15-47.634836,"57.35,68.99"
2024-05-28_13-15-47.667543,"93.68,88.28"
2024-05-28_13-15-47.700329,"80.02,68.94"
2024-05-28_13-15-47.733149,"92.55,84.05"
2024-05-28_13-15-47.765786,"78.92,78.06"
2024-05-28_13-15-47.798522,"79.59,69.09"
2024-05-28_13-15-47.827264,"82.08,79.62"
2024-05-28_13-15-47.860089,"83.37,71.22"
2024-05-28_13-15-47.892799,"92.49,69.49"
2024-05-28_13-15-47.925547,"88.31,81.00"
2024-05-28_13-15-47.958343,"55.73,79.13"
2024-05-28_13-15-47.991100,"101.57,94.99"
2024-05-28_13-15-48.023796,"84.78,71.30"
2024-05-28_13-15-48.052531,"75.81,74.29"
2024-05-28_13-15-48.085280,"83.72,77.92"
2024-05-28_13-15-48.118115,"83.66,71.60"
2024-05-28_13-15-48.150850,"82.35,77.07"
2024-05-28_13-15-48.183607,"94.59,84.40"
2024-05-28_13-15-48.216393,"78.41,54.18"
2024-05-28_13-15-48.249054,"85.32,74.34"
2024-05-28_13-15-48.277782,"80.07,86.23"
2024-05-28_13-15-48.310574,"97.09,73.25"
2024-05-28_13-15-48.343350,"93.53,81.47"
2024-05-28_13-15-48.376086,"72.86,71.32"
2024-05-28_13-15-48.408918,"83.23,78.18"
2024-05-28_13-15-48.441659,"79.73,71.00"
2024-05-28_13-15-48.474318,"87.37,82.11"
2024-05-28_13-15-48.503068,"87.83,68.96"
2024-05-28_13-15-48.535895,"94.64,53.72"
2024-05-28_13-15-48.568658,"64.99,97.00"
2024-05-28_13-15-48.601358,"85.93,95.42"
2024-05-28_13-15-48.634220,"85.03,67.51"
2024-05-28_13-15-48.666955,"81.08,79.90"
2024-05-28_13-15-48.699622,"73.16,73.39"
2024-05-28_13-15-48.728361,"84.50,76.11"
2024-05-28_13-15-48.761121,"91.75,83.28"
2024-05-28_13-15-48.793981,"77.98,69.93"
2024-05-28_13-15-48.826660,"88.29,52.35"
2024-05-28_13-15-48.859410,"89.26,61.02"
2024-05-28_13-15-48.892187,"69.44,93.53"
2024-05-28_13-15-48.924967,"95.36,88.51"
2024-05-28_13-15-48.957672,"93.04,82.90"
2024-05-28_13-15-48.986469,"66.52,81.09"
2024-05-28_13-15-49.019180,"65.21,82.45"
2024-05-28_13-15-49.052000,"81.29,81.57"
2024-05-28_13-15-49.084802,"85.51,83.88"
2024-05-28_13-15-49.117510,"86.08,58.94"
2024-05-28_13-15-49.150177,"97.35,57.00"
2024-05-28_13-15-49.182918,"75.66,53.32"
2024-05-28_13-15-49.211699,"80.68,88.98"
2024-05-28_13-15-49.244432,"95.63,82.68"
2024-05-28_13-15-49.277210,"76.20,65.93"
2024-05-28_13-15-49.310012,"82.23,78.34"
2024-05-28_13-15-49.342734,"88.48,83.71"
2024-05-28_13-15-49.375502,"72.74,69.68"
2024-05-28_13-15-49.408169,"89.42,80.69"
2024-05-28_13-15-49.437007,"84.52,71.98"
2024-05-28_13-15-49.469758,"101.18,45.43"
2024-05-28_13-15-49.502487,"64.02,65.95"
2024-05-28_13-15-49.535322,"80.54,78.62"
2024-05-28_13-15-49.568022,"98.72,85.04"
2024-05-28_13-15-49.600736,"78.85,78.88"
2024-05-28_13-15-49.633421,"86.42,82.03"
2024-05-28_13-15-49.662245,"90.60,78.49"
2024-05-28_13-15-49.694980,"81.97,68.21"
2024-05-28_13-15-49.727743,"82.52,81.29"
2024-05-28_13-15-49.760495,"95.70,72.62"
2024-05-28_13-15-49.793296,"85.02,54.57"
2024-05-28_13-15-49.826018,"69.81,68.87"
2024-05-28_13-15-49.858701,"81.02,82.93"
2024-05-28_13-15-49.887493,"70.85,71.03"
2024-05-28_13-15-49.920279,"86.13,85.54"
2024-05-28_13-15-49.953036,"78.51,72.26"
2024-05-28_13-15-49.985851,"83.18,79.27"
2024-05-28_13-15-50.018634,"91.56,61.25"
2024-05-28_13-15-50.051333,"83.64,49.55"
2024-05-28_13-15-50.084007,"107.15,60.15"
2024-05-28_13-15-50.112861,"60.54,63.38"
2024-05-28_13-15-50.145567,"95.22,79.66"
2024-05-28_13-15-50.178310,"91.40,90.45"
2024-05-28_13-15-50.211088,"86.00,86.67"
2024-05-28_13-15-50.243948,"78.71,77.67"
2024-05-28_13-15-50.276597,"85.48,71.47"
2024-05-28_13-15-50.309256,"78.31,84.32"
2024-05-28_13-15-50.338032,"85.82,72.16"
2024-05-28_13-15-50.370858,"87.36,68.81"
2024-05-28_13-15-50.403600,"97.23,83.06"
2024-05-28_13-15-50.436346,"62.34,55.61"
2024-05-28_13-15-50.469186,"96.57,90.35"
2024-05-28_13-15-50.501834,"83.06,71.92"
2024-05-28_13-15-50.534535,"72.19,77.12"
2024-05-28_13-15-50.563319,"81.58,77.11"
2024-05-28_13-15-50.596079,"78.19,71.38"
2024-05-28_13-15-50.628951,"80.54,76.52"
2024-05-28_13-15-50.661657,"102.09,67.36"
2024-05-28_13-15-50.694424,"82.85,54.17"
2024-05-28_13-15-50.727133,"91.45,69.86"
2024-05-28_13-15-50.759828,"66.41,67.07"
2024-05-28_13-15-50.788627,"83.02,90.46"
2024-05-28_13-15-50.821378,"83.10,82.30"
2024-05-28_13-15-50.854134,"81.91,73.89"
2024-05-28_13-15-50.886917,"81.22,78.73"
2024-05-28_13-15-50.919671,"83.93,70.52"
2024-05-28_13-15-50.952391,"88.11,81.34"
2024-05-28_13-15-50.985089,"89.93,81.16"
2024-05-28_13-15-51.013856,"83.89,52.45"
2024-05-28_13-15-51.046655,"79.00,75.15"
2024-05-28_13-15-51.079767,"79.85,89.83"
2024-05-28_13-15-51.112228,"82.35,65.54"
2024-05-28_13-15-51.144985,"78.01,103.97"
2024-05-28_13-15-51.177683,"79.73,76.10"
2024-05-28_13-15-51.210394,"82.88,74.41"
2024-05-28_13-15-51.239127,"88.20,83.30"
2024-05-28_13-15-51.271935,"76.41,69.72"
2024-05-28_13-15-51.304716,"90.90,68.53"
2024-05-28_13-15-51.337458,"95.15,55.91"
2024-05-28_13-15-51.370227,"69.61,59.82"
2024-05-28_13-15-51.403025,"94.13,93.54"
2024-05-28_13-15-51.435652,"84.62,69.04"
2024-05-28_13-15-51.464423,"80.88,81.77"
2024-05-28_13-15-51.497183,"76.85,72.54"
2024-05-28_13-15-51.529960,"89.11,81.44"
2024-05-28_13-15-51.562722,"88.47,80.59"
2024-05-28_13-15-51.595487,"86.10,68.24"
2024-05-28_13-15-51.628220,"78.57,81.50"
2024-05-28_13-15-51.660994,"88.02,71.88"
2024-05-28_13-15-51.691011,"85.82,83.86"
2024-05-28_13-15-51.722522,"84.72,71.43"
2024-05-28_13-15-51.755252,"89.98,76.53"
2024-05-28_13-15-51.788035,"89.59,81.38"
2024-05-28_13-15-51.820758,"86.71,83.19"
2024-05-28_13-15-51.853525,"72.59,68.94"
2024-05-28_13-15-51.886229,"89.42,81.52"
2024-05-28_13-15-51.914947,"84.79,72.00"
2024-05-28_13-15-51.947712,"91.97,45.62"
2024-05-28_13-15-51.980493,"65.88,99.31"
2024-05-28_13-15-52.013248,"83.08,79.23"
2024-05-28_13-15-52.046062,"104.89,88.57"
2024-05-28_13-15-52.078842,"86.22,83.59"
2024-05-28_13-15-52.111486,"74.92,85.90"
2024-05-28_13-15-52.140248,"93.03,82.39"
2024-05-28_13-15-52.173057,"70.12,67.94"
2024-05-28_13-15-52.205776,"84.54,80.76"
2024-05-28_13-15-52.238575,"102.48,71.95"
2024-05-28_13-15-52.271325,"87.19,55.88"
2024-05-28_13-15-52.304128,"63.43,75.77"
2024-05-28_13-15-52.336798,"90.05,72.10"
2024-05-28_13-15-52.369466,"94.78,84.13"
2024-05-28_13-15-52.398301,"87.32,84.40"
2024-05-28_13-15-52.431055,"77.92,71.32"
2024-05-28_13-15-52.463814,"82.20,79.99"
2024-05-28_13-15-52.496640,"84.59,71.48"
2024-05-28_13-15-52.529378,"82.15,78.40"
2024-05-28_13-15-52.562051,"106.96,55.75"
2024-05-28_13-15-52.594744,"72.34,57.00"
2024-05-28_13-15-52.623703,"76.51,73.38"
2024-05-28_13-15-52.656509,"86.88,81.82"
2024-05-28_13-15-52.689139,"75.77,87.55"
2024-05-28_13-15-52.721855,"67.39,85.14"
2024-05-28_13-15-52.754652,"82.54,69.16"
2024-05-28_13-15-52.787348,"78.30,79.32"
2024-05-28_13-15-52.820061,"84.39,72.05"
2024-05-28_13-15-52.848834,"88.21,82.41"
2024-05-28_13-15-52.881623,"94.13,51.78"
2024-05-28_13-15-52.914368,"64.83,77.98"
2024-05-28_13-15-52.947114,"93.19,89.08"
2024-05-28_13-15-52.979906,"96.99,73.74"
2024-05-28_13-15-53.012610,"81.81,78.51"
2024-05-28_13-15-53.045350,"81.60,76.98"
2024-05-28_13-15-53.074185,"80.64,71.17"
2024-05-28_13-15-53.107007,"87.40,73.01"
2024-05-28_13-15-53.139720,"97.30,68.89"
2024-05-28_13-15-53.172479,"85.03,64.57"
2024-05-28_13-15-53.205200,"91.43,73.66"
2024-05-28_13-15-53.237905,"66.24,67.68"
2024-05-28_13-15-53.270564,"95.13,90.85"
2024-05-28_13-15-53.299445,"91.04,71.32"
2024-05-28_13-15-53.332159,"77.70,74.28"
2024-05-28_13-15-53.364942,"78.48,78.04"
2024-05-28_13-15-53.397668,"86.01,71.15"
2024-05-28_13-15-53.430450,"87.60,81.71"
2024-05-28_13-15-53.463179,"88.79,82.71"
2024-05-28_13-15-53.495886,"93.36,52.76"
2024-05-28_13-15-53.524706,"76.12,57.65"
2024-05-28_13-15-53.557423,"88.09,89.25"
2024-05-28_13-15-53.590181,"83.55,65.40"
2024-05-28_13-15-53.622932,"80.35,80.52"
2024-05-28_13-15-53.655742,"84.99,73.51"
2024-05-28_13-15-53.688482,"82.89,76.14"
2024-05-28_13-15-53.721165,"93.67,83.39"
2024-05-28_13-15-53.749947,"74.46,69.11"
2024-05-28_13-15-53.782826,"86.27,68.49"
2024-05-28_13-15-53.817600,"90.75,81.48"
2024-05-28_13-15-53.848387,"90.34,57.99"
2024-05-28_13-15-53.881154,"85.06,58.59"
2024-05-28_13-15-53.921745,"87.77,103.31"
2024-05-28_13-15-53.946506,"55.56,102.64"
2024-05-28_13-15-53.975214,"65.07,79.62"
2024-05-28_13-15-54.007973,"93.49,80.94"
2024-05-28_13-15-54.040904,"76.76,80.62"
2024-05-28_13-15-54.073544,"86.35,68.08"
2024-05-28_13-15-54.106327,"97.79,54.44"
2024-05-28_13-15-54.139098,"68.85,64.95"
2024-05-28_13-15-54.171716,"81.23,82.78"
2024-05-28_13-15-54.200479,"85.46,82.11"
2024-05-28_13-15-54.233264,"76.66,67.19"
2024-05-28_13-15-54.266006,"82.53,76.21"
2024-05-28_13-15-54.298835,"88.55,83.38"
2024-05-28_13-15-54.331588,"75.09,69.91"
2024-05-28_13-15-54.364334,"89.98,81.17"
2024-05-28_13-15-54.397078,"82.53,71.34"
2024-05-28_13-15-54.425827,"94.10,66.04"
2024-05-28_13-15-54.458601,"85.36,58.62"
2024-05-28_13-15-54.491301,"79.92,64.43"
2024-05-28_13-15-54.524226,"84.37,75.59"
2024-05-28_13-15-54.556997,"85.28,75.54"
2024-05-28_13-15-54.589709,"79.51,84.43"
2024-05-28_13-15-54.622416,"81.12,68.62"
2024-05-28_13-15-54.651101,"89.20,71.32"
2024-05-28_13-15-54.684351,"80.64,66.06"
2024-05-28_13-15-54.716660,"99.21,51.19"
2024-05-28_13-15-54.749405,"73.84,82.92"
2024-05-28_13-15-54.782189,"83.74,80.22"
2024-05-28_13-15-54.814998,"87.64,62.87"
2024-05-28_13-15-54.847560,"90.26,94.77"
2024-05-28_13-15-54.876316,"92.17,89.37"
2024-05-28_13-15-54.909238,"79.88,71.05"
2024-05-28_13-15-54.941904,"89.83,79.32"
2024-05-28_13-15-54.974719,"84.04,55.91"
2024-05-28_13-15-55.007447,"90.55,75.77"
2024-05-28_13-15-55.040355,"68.55,81.88"
2024-05-28_13-15-55.072861,"89.35,98.48"
2024-05-28_13-15-55.101771,"90.62,76.61"
2024-05-28_13-15-55.134406,"90.89,63.50"
2024-05-28_13-15-55.167155,"81.60,86.82"
2024-05-28_13-15-55.200193,"78.32,77.88"
2024-05-28_13-15-55.232845,"101.55,79.03"
2024-05-28_13-15-55.265466,"99.59,54.09"
2024-05-28_13-15-55.298187,"98.70,68.13"
2024-05-28_13-15-55.330889,"92.73,54.23"
2024-05-28_13-15-55.359665,"81.40,50.86"
2024-05-28_13-15-55.392540,"85.92,83.70"
2024-05-28_13-15-55.425268,"74.40,79.41"
2024-05-28_13-15-55.458202,"96.92,86.07"
2024-05-28_13-15-55.490780,"79.20,82.08"
2024-05-28_13-15-55.523421,"85.08,85.81"
2024-05-28_13-15-55.556090,"83.66,73.04"
2024-05-28_13-15-55.584951,"81.05,80.56"
2024-05-28_13-15-55.618007,"93.51,88.41"
2024-05-28_13-15-55.650484,"78.67,71.68"
2024-05-28_13-15-55.683266,"87.55,71.17"
2024-05-28_13-15-55.716048,"98.38,75.16"
2024-05-28_13-15-55.748733,"92.18,73.65"
2024-05-28_13-15-55.782086,"94.94,77.19"
2024-05-28_13-15-55.810236,"55.13,84.54"
2024-05-28_13-15-55.843531,"86.20,85.90"
2024-05-28_13-15-55.875828,"93.98,74.70"
2024-05-28_13-15-55.908555,"98.10,53.68"
2024-05-28_13-15-55.941282,"99.66,91.21"
2024-05-28_13-15-55.973983,"81.25,81.62"
2024-05-28_13-15-56.006682,"74.49,80.89"
2024-05-28_13-15-56.035459,"87.71,81.53"
2024-05-28_13-15-56.068548,"90.73,73.07"
2024-05-28_13-15-56.103469,"80.63,67.16"
2024-05-28_13-15-56.133991,"55.09,73.01"
2024-05-28_13-15-56.166601,"87.12,74.57"
2024-05-28_13-15-56.199244,"89.99,84.44"
2024-05-28_13-15-56.231971,"76.94,71.05"
2024-05-28_13-15-56.260774,"98.95,61.55"
2024-05-28_13-15-56.293556,"91.06,69.04"
2024-05-28_13-15-56.326362,"85.01,70.50"
2024-05-28_13-15-56.359101,"79.94,75.08"
2024-05-28_13-15-56.391985,"88.96,79.32"
2024-05-28_13-15-56.424512,"84.74,91.81"
2024-05-28_13-15-56.457245,"76.04,78.89"
2024-05-28_13-15-56.486062,"86.34,81.87"
2024-05-28_13-15-56.518843,"92.73,81.55"
2024-05-28_13-15-56.551612,"99.06,69.32"
2024-05-28_13-15-56.584377,"89.15,59.08"
2024-05-28_13-15-56.617126,"76.68,64.57"
2024-05-28_13-15-56.649934,"77.80,83.59"
2024-05-28_13-15-56.682521,"86.31,69.61"
2024-05-28_13-15-56.711351,"86.76,77.43"
2024-05-28_13-15-56.744156,"94.34,82.23"
2024-05-28_13-15-56.776910,"81.66,84.86"
2024-05-28_13-15-56.809689,"77.75,70.38"
2024-05-28_13-15-56.842451,"85.88,85.96"
2024-05-28_13-15-56.875169,"106.36,75.81"
2024-05-28_13-15-56.907793,"82.04,73.69"
2024-05-28_13-15-56.936545,"72.39,80.58"
2024-05-28_13-15-56.969363,"71.42,80.89"
2024-05-28_13-15-57.002175,"85.50,73.82"
2024-05-28_13-15-57.034925,"93.69,80.16"
2024-05-28_13-15-57.067678,"84.08,87.25"
2024-05-28_13-15-57.100442,"80.13,81.39"
2024-05-28_13-15-57.133030,"96.50,70.70"
2024-05-28_13-15-57.161834,"81.62,79.60"
2024-05-28_13-15-57.194656,"84.76,71.05"
2024-05-28_13-15-57.227441,"87.97,63.33"
2024-05-28_13-15-57.260329,"57.15,68.24"
2024-05-28_13-15-57.293008,"87.87,79.14"
2024-05-28_13-15-57.325624,"88.06,86.73"
2024-05-28_13-15-57.358593,"98.69,83.80"
2024-05-28_13-15-57.387156,"77.76,77.01"
2024-05-28_13-15-57.419936,"83.76,80.19"
2024-05-28_13-15-57.452739,"82.73,73.42"
2024-05-28_13-15-57.485494,"89.49,79.03"
2024-05-28_13-15-57.518268,"92.17,60.01"
2024-05-28_13-15-57.550962,"87.30,58.32"
2024-05-28_13-15-57.583615,"77.98,76.58"
2024-05-28_13-15-57.612461,"98.32,84.47"
2024-05-28_13-15-57.645286,"91.96,98.61"
2024-05-28_13-15-57.678032,"91.74,89.14"
2024-05-28_13-15-57.710817,"86.07,73.47"
2024-05-28_13-15-57.743526,"83.65,79.96"
2024-05-28_13-15-57.776197,"80.69,76.89"
2024-05-28_13-15-57.809082,"96.29,67.11"
2024-05-28_13-15-57.837760,"91.71,59.88"
2024-05-28_13-15-57.870469,"68.57,81.34"
2024-05-28_13-15-57.903263,"76.44,80.53"
2024-05-28_13-15-57.935962,"99.16,87.41"
2024-05-28_13-15-57.968771,"85.97,72.13"
2024-05-28_13-15-58.001464,"94.50,85.68"
2024-05-28_13-15-58.034248,"84.25,72.41"
2024-05-28_13-15-58.062984,"78.25,81.25"
2024-05-28_13-15-58.095765,"84.38,81.66"
2024-05-28_13-15-58.128509,"91.51,77.05"
2024-05-28_13-15-58.161338,"96.00,56.80"
2024-05-28_13-15-58.194037,"61.54,60.03"
2024-05-28_13-15-58.226775,"87.95,62.15"
2024-05-28_13-15-58.259447,"98.95,93.81"
2024-05-28_13-15-58.288247,"89.11,82.81"
2024-05-28_13-15-58.321193,"73.82,80.37"
2024-05-28_13-15-58.354087,"91.99,76.24"
2024-05-28_13-15-58.386546,"87.36,72.77"
2024-05-28_13-15-58.419336,"100.34,66.64"
2024-05-28_13-15-58.452114,"96.91,64.56"
2024-05-28_13-15-58.484719,"71.36,54.60"
2024-05-28_13-15-58.513714,"80.40,79.23"
2024-05-28_13-15-58.546326,"89.73,79.56"
2024-05-28_13-15-58.579153,"88.67,78.48"
2024-05-28_13-15-58.611834,"79.98,79.78"
2024-05-28_13-15-58.644686,"98.87,81.00"
2024-05-28_13-15-58.677382,"90.51,68.37"
2024-05-28_13-15-58.710195,"77.18,70.99"
2024-05-28_13-15-58.738803,"92.15,72.54"
2024-05-28_13-15-58.771593,"92.01,63.90"
2024-05-28_13-15-58.804379,"78.14,67.28"
2024-05-28_13-15-58.837114,"91.27,78.55"
2024-05-28_13-15-58.869885,"89.95,81.60"
2024-05-28_13-15-58.902684,"82.14,89.12"
2024-05-28_13-15-58.935304,"87.30,77.97"
2024-05-28_13-15-58.964088,"85.34,83.71"
2024-05-28_13-15-58.996986,"96.71,75.68"
2024-05-28_13-15-59.029963,"88.95,52.64"
2024-05-28_13-15-59.062347,"76.33,80.46"
2024-05-28_13-15-59.095185,"95.96,83.76"
2024-05-28_13-15-59.127924,"74.51,61.81"
2024-05-28_13-15-59.160585,"90.76,77.00"
2024-05-28_13-15-59.193311,"83.10,71.19"
2024-05-28_13-15-59.222138,"98.34,84.90"
2024-05-28_13-15-59.255002,"79.17,85.07"
2024-05-28_13-15-59.287767,"93.19,56.71"
2024-05-28_13-15-59.320433,"93.05,72.61"
2024-05-28_13-15-59.353163,"101.28,65.96"
2024-05-28_13-15-59.385857,"92.64,46.35"
2024-05-28_13-15-59.418568,"79.30,67.35"
2024-05-28_13-15-59.447388,"67.81,64.15"
2024-05-28_13-15-59.480252,"90.89,76.45"
2024-05-28_13-15-59.512969,"88.52,83.28"
2024-05-28_13-15-59.545739,"60.53,82.70"
2024-05-28_13-15-59.578486,"84.64,83.30"
2024-05-28_13-15-59.611245,"85.79,77.88"
2024-05-28_13-15-59.643833,"78.70,61.83"
2024-05-28_13-15-59.672731,"98.85,68.51"
2024-05-28_13-15-59.705465,"92.79,69.58"
2024-05-28_13-15-59.738275,"82.31,57.17"
2024-05-28_13-15-59.770967,"85.54,52.75"
2024-05-28_13-15-59.804055,"95.84,69.87"
2024-05-28_13-15-59.836412,"91.12,99.68"
2024-05-28_13-15-59.869332,"63.02,75.11"
2024-05-28_13-15-59.898021,"94.94,76.55"
2024-05-28_13-15-59.930744,"84.75,72.62"
2024-05-28_13-15-59.963746,"97.74,52.03"
2024-05-28_13-15-59.996350,"102.85,56.24"
2024-05-28_13-16-00.029027,"60.79,72.77"
2024-05-28_13-16-00.061795,"94.73,77.46"
2024-05-28_13-16-00.094415,"101.83,84.67"
2024-05-28_13-16-00.123238,"79.97,79.27"
2024-05-28_13-16-00.156040,"86.38,87.12"
2024-05-28_13-16-00.188775,"81.21,69.76"
2024-05-28_13-16-00.221614,"85.51,74.59"
2024-05-28_13-16-00.254436,"82.92,72.61"
2024-05-28_13-16-00.286983,"105.03,64.22"
2024-05-28_13-16-00.319672,"96.86,54.53"
2024-05-28_13-16-00.348488,"67.16,58.66"
2024-05-28_13-16-00.381546,"86.01,60.60"
2024-05-28_13-16-00.414037,"90.11,93.55"
2024-05-28_13-16-00.446817,"87.80,85.33"
2024-05-28_13-16-00.479578,"92.69,84.61"
2024-05-28_13-16-00.512284,"75.12,70.88"
2024-05-28_13-16-00.544928,"83.38,73.02"
2024-05-28_13-16-00.573884,"99.24,76.33"
2024-05-28_13-16-00.606561,"78.05,69.26"
2024-05-28_13-16-00.639324,"83.96,92.52"
2024-05-28_13-16-00.672120,"84.78,71.63"
2024-05-28_13-16-00.704868,"91.01,86.08"
2024-05-28_13-16-00.737525,"97.86,88.12"
2024-05-28_13-16-00.770231,"92.34,73.66"
2024-05-28_13-16-00.799053,"76.33,80.34"
2024-05-28_13-16-00.831816,"87.76,71.14"
2024-05-28_13-16-00.865151,"95.35,78.15"
2024-05-28_13-16-00.897522,"88.47,67.71"
2024-05-28_13-16-00.930224,"80.32,89.71"
2024-05-28_13-16-00.962887,"82.13,78.07"
2024-05-28_13-16-00.995526,"102.47,93.24"
2024-05-28_13-16-01.024308,"93.16,72.21"
2024-05-28_13-16-01.057282,"80.81,83.11"
2024-05-28_13-16-01.089884,"73.58,73.81"
2024-05-28_13-16-01.122719,"80.89,77.27"
2024-05-28_13-16-01.155390,"93.88,85.56"
2024-05-28_13-16-01.188117,"78.25,70.93"
2024-05-28_13-16-01.220786,"87.09,68.30"
2024-05-28_13-16-01.249549,"86.58,53.75"
2024-05-28_13-16-01.282319,"84.62,77.07"
2024-05-28_13-16-01.315106,"92.35,86.91"
2024-05-28_13-16-01.347875,"86.40,70.37"
2024-05-28_13-16-01.380592,"85.15,80.20"
2024-05-28_13-16-01.413380,"78.25,72.62"
2024-05-28_13-16-01.446071,"92.18,81.77"
2024-05-28_13-16-01.474818,"90.20,81.48"
2024-05-28_13-16-01.507601,"84.00,67.81"
2024-05-28_13-16-01.540430,"92.47,52.17"
2024-05-28_13-16-01.573297,"80.18,53.84"
2024-05-28_13-16-01.605956,"77.96,73.79"
2024-05-28_13-16-01.638782,"91.11,74.68"
2024-05-28_13-16-01.671370,"94.88,80.11"
2024-05-28_13-16-01.704109,"74.51,78.19"
2024-05-28_13-16-01.732955,"92.88,90.18"
2024-05-28_13-16-01.765928,"77.58,71.21"
2024-05-28_13-16-01.798465,"94.24,60.16"
2024-05-28_13-16-01.831242,"89.59,88.71"
2024-05-28_13-16-01.864000,"59.07,76.70"
2024-05-28_13-16-01.897100,"90.24,69.04"
2024-05-28_13-16-01.929358,"94.08,86.28"
2024-05-28_13-16-01.958188,"89.03,79.07"
2024-05-28_13-16-01.990983,"90.19,81.53"
2024-05-28_13-16-02.023751,"89.50,86.07"
2024-05-28_13-16-02.056571,"81.02,81.24"
2024-05-28_13-16-02.089268,"76.81,79.69"
2024-05-28_13-16-02.122033,"99.65,71.36"
2024-05-28_13-16-02.154636,"79.57,50.16"
2024-05-28_13-16-02.183554,"72.07,61.87"
2024-05-28_13-16-02.216262,"91.58,89.93"
2024-05-28_13-16-02.249006,"81.89,56.45"
2024-05-28_13-16-02.281760,"97.93,86.52"
2024-05-28_13-16-02.314529,"80.76,98.50"
2024-05-28_13-16-02.347260,"71.81,71.68"
2024-05-28_13-16-02.379941,"92.91,75.86"
2024-05-28_13-16-02.408744,"98.75,66.13"
2024-05-28_13-16-02.441528,"97.12,49.68"
2024-05-28_13-16-02.474328,"90.58,66.07"
2024-05-28_13-16-02.507134,"67.80,57.00"
2024-05-28_13-16-02.539870,"82.18,66.41"
2024-05-28_13-16-02.572484,"79.70,82.83"
2024-05-28_13-16-02.605287,"83.71,85.42"
2024-05-28_13-16-02.634049,"79.89,81.97"
2024-05-28_13-16-02.666782,"93.35,79.15"
2024-05-28_13-16-02.699524,"93.65,49.96"
2024-05-28_13-16-02.732443,"89.28,54.79"
2024-05-28_13-16-02.765086,"93.79,53.22"
2024-05-28_13-16-02.798076,"73.69,70.90"
2024-05-28_13-16-02.830448,"87.41,66.31"
2024-05-28_13-16-02.859275,"81.04,73.54"
2024-05-28_13-16-02.892099,"86.21,88.65"
2024-05-28_13-16-02.924808,"58.47,78.13"
2024-05-28_13-16-02.957655,"87.12,78.62"
2024-05-28_13-16-02.990424,"81.79,90.90"
2024-05-28_13-16-03.023209,"106.18,58.40"
2024-05-28_13-16-03.055736,"101.18,79.15"
2024-05-28_13-16-03.084581,"83.02,58.06"
2024-05-28_13-16-03.117461,"79.33,77.80"
2024-05-28_13-16-03.150147,"77.77,47.65"
2024-05-28_13-16-03.182920,"89.31,93.18"
2024-05-28_13-16-03.215649,"80.77,83.51"
2024-05-28_13-16-03.248357,"84.70,73.97"
2024-05-28_13-16-03.281024,"84.86,77.84"
2024-05-28_13-16-03.309825,"86.71,64.30"
2024-05-28_13-16-03.342668,"86.44,83.07"
2024-05-28_13-16-03.375423,"82.00,100.51"
2024-05-28_13-16-03.408178,"80.19,78.28"
2024-05-28_13-16-03.440980,"82.27,66.50"
2024-05-28_13-16-03.473591,"92.75,88.89"
2024-05-28_13-16-03.506350,"83.32,72.98"
2024-05-28_13-16-03.535172,"104.18,83.14"
2024-05-28_13-16-03.567863,"78.69,73.49"
2024-05-28_13-16-03.600707,"77.81,79.33"
2024-05-28_13-16-03.633445,"104.33,80.74"
2024-05-28_13-16-03.666268,"93.37,53.91"
2024-05-28_13-16-03.698873,"82.99,89.96"
2024-05-28_13-16-03.731623,"75.01,61.73"
2024-05-28_13-16-03.760437,"84.85,82.26"
2024-05-28_13-16-03.793167,"95.38,91.17"
2024-05-28_13-16-03.825963,"89.38,79.93"
2024-05-28_13-16-03.858746,"61.59,92.03"
2024-05-28_13-16-03.891476,"82.57,63.97"
2024-05-28_13-16-03.924142,"85.30,82.02"
2024-05-28_13-16-03.956835,"89.07,80.80"
2024-05-28_13-16-03.985595,"92.67,68.57"
2024-05-28_13-16-04.018415,"94.73,51.73"
2024-05-28_13-16-04.051200,"74.18,93.34"
2024-05-28_13-16-04.084053,"95.39,88.30"
2024-05-28_13-16-04.116728,"73.33,69.56"
2024-05-28_13-16-04.149651,"57.47,81.18"
2024-05-28_13-16-04.182150,"86.41,78.28"
2024-05-28_13-16-04.210985,"93.00,82.87"
2024-05-28_13-16-04.243687,"73.96,70.31"
2024-05-28_13-16-04.276538,"95.22,73.34"
2024-05-28_13-16-04.309261,"87.39,82.94"
2024-05-28_13-16-04.342016,"68.46,69.92"
2024-05-28_13-16-04.374899,"77.52,76.80"
2024-05-28_13-16-04.407452,"87.24,65.96"
2024-05-28_13-16-04.436356,"81.61,89.05"
2024-05-28_13-16-04.468993,"74.51,74.72"
2024-05-28_13-16-04.501962,"76.08,84.93"
2024-05-28_13-16-04.534550,"85.19,85.88"
2024-05-28_13-16-04.567352,"95.40,64.57"
2024-05-28_13-16-04.600094,"88.30,75.05"
2024-05-28_13-16-04.632715,"84.89,78.49"
2024-05-28_13-16-04.665390,"81.47,81.30"
2024-05-28_13-16-04.694241,"94.38,64.11"
2024-05-28_13-16-04.727023,"76.82,75.92"
2024-05-28_13-16-04.759765,"84.52,81.35"
2024-05-28_13-16-04.792637,"85.48,83.40"
2024-05-28_13-16-04.825329,"71.69,70.62"
2024-05-28_13-16-04.857985,"93.29,83.29"
2024-05-28_13-16-04.890750,"84.54,56.39"
2024-05-28_13-16-04.919569,"82.69,49.66"
2024-05-28_13-16-04.952308,"77.32,72.66"
2024-05-28_13-16-04.985089,"77.85,64.23"
2024-05-28_13-16-05.017954,"99.91,68.52"
2024-05-28_13-16-05.050613,"92.92,85.87"
2024-05-28_13-16-05.083397,"77.52,84.93"
2024-05-28_13-16-05.115965,"86.52,84.66"
2024-05-28_13-16-05.144790,"90.74,71.97"
2024-05-28_13-16-05.177769,"89.51,59.74"
2024-05-28_13-16-05.210537,"99.01,59.01"
2024-05-28_13-16-05.243182,"89.37,86.78"
2024-05-28_13-16-05.275915,"89.56,65.17"
2024-05-28_13-16-05.308569,"92.44,78.19"
2024-05-28_13-16-05.341330,"80.39,74.12"
2024-05-28_13-16-05.370145,"99.04,90.90"
2024-05-28_13-16-05.402970,"86.65,76.14"
2024-05-28_13-16-05.435621,"95.01,80.15"
2024-05-28_13-16-05.468414,"93.96,62.41"
2024-05-28_13-16-05.501171,"93.88,70.06"
2024-05-28_13-16-05.533895,"96.28,81.31"
2024-05-28_13-16-05.566565,"64.54,55.37"
2024-05-28_13-16-05.595314,"85.35,73.30"
2024-05-28_13-16-05.628103,"79.23,90.17"
2024-05-28_13-16-05.661059,"94.11,84.62"
2024-05-28_13-16-05.693680,"81.75,94.16"
2024-05-28_13-16-05.726476,"85.16,69.99"
2024-05-28_13-16-05.759129,"87.89,78.95"
2024-05-28_13-16-05.791863,"98.67,55.97"
2024-05-28_13-16-05.820640,"92.97,61.23"
2024-05-28_13-16-05.853564,"66.17,87.33"
2024-05-28_13-16-05.886172,"88.27,74.02"
2024-05-28_13-16-05.919028,"78.57,71.61"
2024-05-28_13-16-05.951726,"93.75,92.32"
2024-05-28_13-16-05.984486,"76.74,75.13"
2024-05-28_13-16-06.017113,"86.64,79.19"
2024-05-28_13-16-06.046015,"83.49,65.09"
2024-05-28_13-16-06.078714,"87.74,74.00"
2024-05-28_13-16-06.111530,"89.87,80.90"
2024-05-28_13-16-06.144195,"88.90,56.71"
2024-05-28_13-16-06.176994,"70.66,84.84"
2024-05-28_13-16-06.209673,"87.67,90.77"
2024-05-28_13-16-06.242390,"83.13,97.75"
2024-05-28_13-16-06.271200,"81.82,80.58"
2024-05-28_13-16-06.304102,"76.01,71.37"
2024-05-28_13-16-06.336731,"81.18,84.21"
2024-05-28_13-16-06.369535,"84.50,76.41"
2024-05-28_13-16-06.402270,"86.50,82.82"
2024-05-28_13-16-06.434950,"95.24,69.44"
2024-05-28_13-16-06.467730,"77.47,70.96"
2024-05-28_13-16-06.496455,"74.81,80.93"
2024-05-28_13-16-06.529192,"105.91,96.17"
2024-05-28_13-16-06.561967,"73.11,68.35"
2024-05-28_13-16-06.594730,"76.34,78.73"
2024-05-28_13-16-06.627494,"84.44,72.87"
2024-05-28_13-16-06.660263,"77.42,76.05"
2024-05-28_13-16-06.692937,"93.66,69.03"
2024-05-28_13-16-06.721705,"77.91,55.04"
2024-05-28_13-16-06.754501,"94.14,53.77"
2024-05-28_13-16-06.787287,"70.24,68.92"
2024-05-28_13-16-06.820004,"97.64,79.84"
2024-05-28_13-16-06.852870,"89.41,86.25"
2024-05-28_13-16-06.885528,"86.12,75.42"
2024-05-28_13-16-06.918213,"77.50,77.43"
2024-05-28_13-16-06.946962,"78.49,71.25"
2024-05-28_13-16-06.979721,"87.22,80.92"
2024-05-28_13-16-07.012473,"88.78,81.89"
2024-05-28_13-16-07.045258,"83.78,52.23"
2024-05-28_13-16-07.078047,"81.44,74.71"
2024-05-28_13-16-07.110878,"89.39,90.74"
2024-05-28_13-16-07.143513,"93.26,81.49"
2024-05-28_13-16-07.172231,"86.98,84.95"
2024-05-28_13-16-07.205010,"79.23,74.09"
2024-05-28_13-16-07.237776,"93.51,75.66"
2024-05-28_13-16-07.270525,"87.29,82.85"
2024-05-28_13-16-07.303329,"76.80,69.57"
2024-05-28_13-16-07.336085,"88.62,68.18"
2024-05-28_13-16-07.368800,"95.97,66.60"
2024-05-28_13-16-07.397513,"66.70,86.06"
2024-05-28_13-16-07.430281,"94.58,94.43"
2024-05-28_13-16-07.463028,"72.54,68.70"
2024-05-28_13-16-07.495893,"89.80,81.59"
2024-05-28_13-16-07.528654,"72.11,73.60"
2024-05-28_13-16-07.561387,"86.68,84.80"
2024-05-28_13-16-07.594052,"87.85,85.72"
2024-05-28_13-16-07.626752,"99.54,49.70"
2024-05-28_13-16-07.655617,"98.22,52.96"
2024-05-28_13-16-07.688383,"87.06,89.66"
2024-05-28_13-16-07.721096,"84.42,80.28"
2024-05-28_13-16-07.753867,"84.02,81.95"
2024-05-28_13-16-07.786599,"86.83,67.60"
2024-05-28_13-16-07.819349,"90.93,76.76"
2024-05-28_13-16-07.852034,"85.36,83.79"
2024-05-28_13-16-07.880882,"70.17,70.29"
2024-05-28_13-16-07.913587,"89.70,80.36"
2024-05-28_13-16-07.946379,"85.28,71.88"
2024-05-28_13-16-07.979134,"94.83,45.88"
2024-05-28_13-16-08.011919,"67.94,102.78"
2024-05-28_13-16-08.044609,"82.67,80.83"
2024-05-28_13-16-08.077334,"102.92,88.78"
2024-05-28_13-16-08.106178,"76.09,66.99"
2024-05-28_13-16-08.138948,"80.59,82.55"
2024-05-28_13-16-08.171624,"88.19,79.05"
2024-05-28_13-16-08.204413,"85.88,70.06"
2024-05-28_13-16-08.237190,"82.52,81.88"
2024-05-28_13-16-08.269870,"94.27,55.96"
2024-05-28_13-16-08.302587,"91.74,55.15"
2024-05-28_13-16-08.331385,"67.07,89.82"
2024-05-28_13-16-08.364162,"91.64,75.35"
2024-05-28_13-16-08.396965,"101.70,73.52"
2024-05-28_13-16-08.429698,"95.31,86.57"
2024-05-28_13-16-08.462506,"76.66,72.47"
2024-05-28_13-16-08.495176,"84.56,79.76"
2024-05-28_13-16-08.527928,"84.97,85.97"
2024-05-28_13-16-08.556693,"89.80,63.61"
2024-05-28_13-16-08.589453,"104.65,56.83"
2024-05-28_13-16-08.622185,"69.65,56.16"
2024-05-28_13-16-08.654960,"79.08,91.77"
2024-05-28_13-16-08.687759,"101.83,91.46"
2024-05-28_13-16-08.720507,"92.46,76.24"
2024-05-28_13-16-08.753134,"92.39,84.94"
2024-05-28_13-16-08.781914,"74.60,69.89"
2024-05-28_13-16-08.814653,"80.18,79.24"
2024-05-28_13-16-08.847507,"84.34,71.55"
2024-05-28_13-16-08.880225,"98.33,69.47"
2024-05-28_13-16-08.912999,"95.27,82.74"
2024-05-28_13-16-08.945729,"60.36,57.76"
2024-05-28_13-16-08.978469,"101.13,91.43"
2024-05-28_13-16-09.007217,"85.35,69.47"
2024-05-28_13-16-09.039974,"84.23,76.75"
2024-05-28_13-16-09.072712,"81.90,80.46"
2024-05-28_13-16-09.105535,"85.49,71.99"
2024-05-28_13-16-09.138341,"82.13,67.58"
2024-05-28_13-16-09.171007,"102.52,69.24"
2024-05-28_13-16-09.203692,"83.69,55.48"
2024-05-28_13-16-09.232591,"83.71,56.83"
2024-05-28_13-16-09.265257,"68.94,88.01"
2024-05-28_13-16-09.298022,"93.81,92.90"
2024-05-28_13-16-09.330786,"93.32,81.40"
2024-05-28_13-16-09.363555,"83.01,74.04"
2024-05-28_13-16-09.396267,"81.77,78.96"
2024-05-28_13-16-09.428960,"89.72,71.22"
2024-05-28_13-16-09.462793,"87.65,82.36"
2024-05-28_13-16-09.491139,"86.71,78.06"
2024-05-28_13-16-09.523948,"83.93,75.90"
2024-05-28_13-16-09.556523,"66.13,73.43"
2024-05-28_13-16-09.588984,"94.31,80.33"
2024-05-28_13-16-09.621870,"82.71,81.92"
2024-05-28_13-16-09.654278,"75.94,85.93"
2024-05-28_13-16-09.683059,"72.23,74.75"
2024-05-28_13-16-09.715877,"83.98,75.80"
2024-05-28_13-16-09.748641,"93.25,79.00"
2024-05-28_13-16-09.781388,"86.11,62.13"
2024-05-28_13-16-09.814245,"98.71,53.49"
2024-05-28_13-16-09.847013,"83.72,89.28"
2024-05-28_13-16-09.879598,"83.02,60.30"
2024-05-28_13-16-09.908436,"88.74,89.91"
2024-05-28_13-16-09.941186,"95.39,69.92"
2024-05-28_13-16-09.973883,"92.69,80.75"
2024-05-28_13-16-10.006662,"79.70,73.08"
2024-05-28_13-16-10.039396,"81.31,80.95"
2024-05-28_13-16-10.072112,"91.01,80.89"
2024-05-28_13-16-10.104824,"89.23,50.22"
2024-05-28_13-16-10.133742,"95.72,51.32"
2024-05-28_13-16-10.166487,"75.25,69.30"
2024-05-28_13-16-10.199138,"77.97,71.02"
2024-05-28_13-16-10.231964,"97.65,87.73"
2024-05-28_13-16-10.264673,"76.11,80.55"
2024-05-28_13-16-10.297448,"82.80,76.78"
2024-05-28_13-16-10.330107,"89.93,83.59"
2024-05-28_13-16-10.360015,"74.15,68.91"
2024-05-28_13-16-10.391803,"90.12,77.99"
2024-05-28_13-16-10.424514,"89.51,88.03"
2024-05-28_13-16-10.457253,"91.52,52.50"
2024-05-28_13-16-10.490003,"69.84,84.60"
2024-05-28_13-16-10.522786,"90.51,76.04"
2024-05-28_13-16-10.555380,"101.60,74.43"
2024-05-28_13-16-10.584142,"83.09,76.31"
