timestamp,EMG
2024-05-28_13-21-01.231546,"80.56,79.77"
2024-05-28_13-21-01.264302,"51.98,71.29"
2024-05-28_13-21-01.296993,"71.79,77.53"
2024-05-28_13-21-01.325794,"87.11,65.86"
2024-05-28_13-21-01.358514,"79.24,76.22"
2024-05-28_13-21-01.391275,"85.16,57.00"
2024-05-28_13-21-01.424001,"82.33,60.81"
2024-05-28_13-21-01.456821,"54.37,72.75"
2024-05-28_13-21-01.489544,"56.75,64.24"
2024-05-28_13-21-01.522255,"57.84,74.14"
2024-05-28_13-21-01.551015,"54.47,69.28"
2024-05-28_13-21-01.583889,"65.56,67.71"
2024-05-28_13-21-01.616651,"60.99,71.59"
2024-05-28_13-21-01.649307,"53.74,68.86"
2024-05-28_13-21-01.682226,"94.76,82.25"
2024-05-28_13-21-01.714847,"75.57,74.68"
2024-05-28_13-21-01.747614,"79.09,65.77"
2024-05-28_13-21-01.780359,"101.43,76.46"
2024-05-28_13-21-01.809188,"76.07,64.42"
2024-05-28_13-21-01.841872,"47.11,64.56"
2024-05-28_13-21-01.874643,"53.41,68.66"
2024-05-28_13-21-01.907339,"63.70,65.59"
2024-05-28_13-21-01.940192,"66.57,67.94"
2024-05-28_13-21-01.972879,"66.58,76.42"
2024-05-28_13-21-02.001564,"53.88,71.13"
2024-05-28_13-21-02.034309,"54.70,72.36"
2024-05-28_13-21-02.067119,"90.17,70.72"
2024-05-28_13-21-02.099906,"75.83,78.97"
2024-05-28_13-21-02.132654,"80.59,75.32"
2024-05-28_13-21-02.165438,"89.57,60.42"
2024-05-28_13-21-02.198143,"72.89,63.26"
2024-05-28_13-21-02.226896,"50.48,66.39"
2024-05-28_13-21-02.259606,"54.37,74.10"
2024-05-28_13-21-02.292392,"56.17,69.18"
2024-05-28_13-21-02.325163,"59.77,66.24"
2024-05-28_13-21-02.357930,"67.07,69.63"
2024-05-28_13-21-02.390856,"59.68,69.12"
2024-05-28_13-21-02.423399,"54.11,85.49"
2024-05-28_13-21-02.452202,"86.46,67.02"
2024-05-28_13-21-02.484976,"65.72,69.82"
2024-05-28_13-21-02.517700,"82.76,73.23"
2024-05-28_13-21-02.550455,"92.13,78.60"
2024-05-28_13-21-02.583209,"70.67,49.61"
2024-05-28_13-21-02.616061,"66.20,71.72"
2024-05-28_13-21-02.648724,"58.65,64.54"
2024-05-28_13-21-02.681411,"50.11,67.37"
2024-05-28_13-21-02.710233,"65.01,74.98"
2024-05-28_13-21-02.742983,"72.60,68.41"
2024-05-28_13-21-02.775800,"53.20,71.09"
2024-05-28_13-21-02.808515,"60.33,81.74"
2024-05-28_13-21-02.841276,"84.99,86.70"
2024-05-28_13-21-02.873985,"77.57,74.98"
2024-05-28_13-21-02.906709,"77.24,65.59"
2024-05-28_13-21-02.935493,"85.19,77.57"
2024-05-28_13-21-02.968255,"88.83,60.42"
2024-05-28_13-21-03.001114,"54.13,77.79"
2024-05-28_13-21-03.033847,"49.43,69.77"
2024-05-28_13-21-03.066671,"55.87,64.00"
2024-05-28_13-21-03.099290,"57.08,69.04"
2024-05-28_13-21-03.132066,"68.13,67.29"
2024-05-28_13-21-03.160858,"54.08,77.43"
2024-05-28_13-21-03.193540,"53.15,72.31"
2024-05-28_13-21-03.226321,"95.74,67.44"
2024-05-28_13-21-03.259115,"70.82,72.43"
2024-05-28_13-21-03.291879,"84.72,77.21"
2024-05-28_13-21-03.324607,"90.77,69.58"
2024-05-28_13-21-03.357338,"70.85,61.09"
2024-05-28_13-21-03.386057,"63.85,65.40"
2024-05-28_13-21-03.418825,"44.42,68.13"
2024-05-28_13-21-03.451598,"63.07,73.15"
2024-05-28_13-21-03.484493,"57.98,67.15"
2024-05-28_13-21-03.517144,"65.18,69.61"
2024-05-28_13-21-03.549906,"64.11,69.54"
2024-05-28_13-21-03.582588,"53.23,79.95"
2024-05-28_13-21-03.611352,"82.22,76.08"
2024-05-28_13-21-03.644121,"61.36,66.49"
2024-05-28_13-21-03.676899,"77.59,83.17"
2024-05-28_13-21-03.709695,"96.57,61.71"
2024-05-28_13-21-03.742451,"65.71,57.03"
2024-05-28_13-21-03.775155,"73.71,72.42"
2024-05-28_13-21-03.807861,"54.36,64.62"
2024-05-28_13-21-03.836642,"54.62,68.78"
2024-05-28_13-21-03.869496,"64.21,65.36"
2024-05-28_13-21-03.902182,"78.34,76.01"
2024-05-28_13-21-03.934968,"57.50,72.13"
2024-05-28_13-21-03.967767,"52.73,76.89"
2024-05-28_13-21-04.000504,"89.76,65.44"
2024-05-28_13-21-04.033131,"79.19,70.53"
2024-05-28_13-21-04.061902,"67.54,78.04"
2024-05-28_13-21-04.094716,"91.40,78.46"
2024-05-28_13-21-04.127507,"84.74,48.75"
2024-05-28_13-21-04.160234,"65.85,71.31"
2024-05-28_13-21-04.193055,"56.53,75.12"
2024-05-28_13-21-04.225679,"56.74,65.03"
2024-05-28_13-21-04.258380,"52.26,71.54"
2024-05-28_13-21-04.287207,"67.98,69.34"
2024-05-28_13-21-04.319986,"54.49,70.84"
2024-05-28_13-21-04.352720,"52.89,79.48"
2024-05-28_13-21-04.385485,"70.67,73.57"
2024-05-28_13-21-04.418263,"75.24,75.20"
2024-05-28_13-21-04.451026,"73.30,67.70"
2024-05-28_13-21-04.483737,"85.61,76.87"
2024-05-28_13-21-04.512470,"101.88,64.41"
2024-05-28_13-21-04.545239,"52.47,65.93"
2024-05-28_13-21-04.578005,"50.56,70.76"
2024-05-28_13-21-04.610798,"59.45,64.14"
2024-05-28_13-21-04.643624,"58.69,74.48"
2024-05-28_13-21-04.676342,"54.21,71.27"
2024-05-28_13-21-04.708977,"67.90,67.82"
2024-05-28_13-21-04.737741,"57.98,78.32"
2024-05-28_13-21-04.770562,"78.01,70.77"
2024-05-28_13-21-04.803312,"59.37,83.27"
2024-05-28_13-21-04.836099,"96.20,72.48"
2024-05-28_13-21-04.868908,"99.49,65.52"
2024-05-28_13-21-04.901640,"73.87,47.88"
2024-05-28_13-21-04.934471,"70.55,76.99"
2024-05-28_13-21-04.963179,"53.62,66.22"
2024-05-28_13-21-04.995864,"51.52,68.68"
2024-05-28_13-21-05.028584,"63.03,65.05"
2024-05-28_13-21-05.061384,"64.85,68.56"
2024-05-28_13-21-05.094109,"64.65,78.35"
2024-05-28_13-21-05.126965,"53.52,70.32"
2024-05-28_13-21-05.159610,"53.90,72.59"
2024-05-28_13-21-05.192292,"107.65,72.49"
2024-05-28_13-21-05.221151,"71.84,77.87"
2024-05-28_13-21-05.253929,"76.46,75.37"
2024-05-28_13-21-05.286706,"58.56,67.85"
2024-05-28_13-21-05.319555,"63.09,67.44"
2024-05-28_13-21-05.352310,"63.28,65.22"
2024-05-28_13-21-05.389019,"53.87,74.76"
2024-05-28_13-21-05.413910,"52.46,70.53"
2024-05-28_13-21-05.446485,"58.40,66.50"
2024-05-28_13-21-05.479289,"68.37,70.89"
2024-05-28_13-21-05.512003,"60.81,70.35"
2024-05-28_13-21-05.544818,"53.02,84.90"
2024-05-28_13-21-05.577527,"99.61,79.91"
2024-05-28_13-21-05.610204,"64.91,72.51"
2024-05-28_13-21-05.638941,"75.46,73.22"
2024-05-28_13-21-05.671681,"87.23,80.05"
2024-05-28_13-21-05.704451,"90.47,63.80"
2024-05-28_13-21-05.737248,"67.82,60.21"
2024-05-28_13-21-05.770039,"57.67,65.38"
2024-05-28_13-21-05.802784,"47.77,68.69"
2024-05-28_13-21-05.835486,"63.36,75.82"
2024-05-28_13-21-05.868197,"78.90,68.61"
2024-05-28_13-21-05.897028,"55.59,73.21"
2024-05-28_13-21-05.929784,"57.15,71.19"
2024-05-28_13-21-05.962499,"79.20,76.69"
2024-05-28_13-21-05.995294,"80.86,76.40"
2024-05-28_13-21-06.028068,"64.22,66.24"
2024-05-28_13-21-06.061112,"77.64,57.72"
2024-05-28_13-21-06.093521,"109.93,67.23"
2024-05-28_13-21-06.122260,"59.43,64.35"
2024-05-28_13-21-06.155023,"49.23,71.55"
2024-05-28_13-21-06.187888,"55.81,64.54"
2024-05-28_13-21-06.220619,"55.80,70.51"
2024-05-28_13-21-06.253345,"73.85,66.91"
2024-05-28_13-21-06.286120,"62.12,78.06"
2024-05-28_13-21-06.318770,"69.50,70.24"
2024-05-28_13-21-06.347593,"83.04,86.43"
2024-05-28_13-21-06.380381,"88.06,77.72"
2024-05-28_13-21-06.413132,"74.94,68.85"
2024-05-28_13-21-06.445845,"75.59,63.00"
2024-05-28_13-21-06.478732,"89.74,66.54"
2024-05-28_13-21-06.511348,"79.35,50.32"
2024-05-28_13-21-06.544089,"61.69,71.59"
2024-05-28_13-21-06.572807,"58.13,74.89"
2024-05-28_13-21-06.605672,"58.78,66.52"
2024-05-28_13-21-06.638395,"56.15,71.88"
2024-05-28_13-21-06.671182,"78.19,67.87"
2024-05-28_13-21-06.703937,"50.98,71.95"
2024-05-28_13-21-06.736663,"52.49,81.70"
2024-05-28_13-21-06.769343,"84.67,68.98"
2024-05-28_13-21-06.798126,"72.62,77.79"
2024-05-28_13-21-06.830873,"75.50,68.71"
2024-05-28_13-21-06.863665,"86.69,63.92"
2024-05-28_13-21-06.896388,"89.26,62.37"
2024-05-28_13-21-06.929180,"62.82,66.22"
2024-05-28_13-21-06.961963,"50.02,70.96"
2024-05-28_13-21-06.994600,"59.31,65.15"
2024-05-28_13-21-07.023399,"57.95,76.18"
2024-05-28_13-21-07.056272,"65.17,74.48"
2024-05-28_13-21-07.088981,"59.35,68.61"
2024-05-28_13-21-07.121749,"56.90,76.45"
2024-05-28_13-21-07.154490,"92.37,73.24"
2024-05-28_13-21-07.187247,"61.81,77.97"
2024-05-28_13-21-07.219942,"84.66,78.00"
2024-05-28_13-21-07.248706,"95.44,66.87"
2024-05-28_13-21-07.281511,"62.25,73.75"
2024-05-28_13-21-07.314232,"53.68,78.72"
2024-05-28_13-21-07.347023,"57.19,66.58"
2024-05-28_13-21-07.379791,"54.14,73.99"
2024-05-28_13-21-07.412543,"65.61,67.76"
2024-05-28_13-21-07.445218,"72.17,73.44"
2024-05-28_13-21-07.473919,"71.83,83.08"
2024-05-28_13-21-07.506776,"66.51,75.56"
2024-05-28_13-21-07.539533,"89.18,76.56"
2024-05-28_13-21-07.572358,"67.06,53.57"
2024-05-28_13-21-07.605072,"90.25,62.89"
2024-05-28_13-21-07.637836,"85.85,69.82"
2024-05-28_13-21-07.670537,"73.17,51.57"
2024-05-28_13-21-07.699255,"59.17,73.91"
2024-05-28_13-21-07.732048,"58.75,65.67"
2024-05-28_13-21-07.764826,"58.28,78.68"
2024-05-28_13-21-07.797587,"83.62,78.30"
2024-05-28_13-21-07.830331,"70.37,67.57"
2024-05-28_13-21-07.863112,"59.03,77.74"
2024-05-28_13-21-07.895818,"78.49,74.04"
2024-05-28_13-21-07.924549,"74.56,86.35"
2024-05-28_13-21-07.957331,"70.30,44.15"
2024-05-28_13-21-07.990087,"70.12,50.13"
2024-05-28_13-21-08.022864,"77.67,35.83"
2024-05-28_13-21-08.055651,"89.71,55.90"
2024-05-28_13-21-08.088596,"68.93,66.00"
2024-05-28_13-21-08.121060,"55.93,59.96"
2024-05-28_13-21-08.149844,"57.77,65.73"
2024-05-28_13-21-08.182596,"46.71,70.75"
2024-05-28_13-21-08.215390,"61.65,77.03"
2024-05-28_13-21-08.248145,"74.02,68.58"
2024-05-28_13-21-08.280887,"52.84,75.37"
2024-05-28_13-21-08.313724,"73.38,85.39"
2024-05-28_13-21-08.346374,"68.94,89.08"
2024-05-28_13-21-08.375105,"73.12,76.40"
2024-05-28_13-21-08.407909,"63.87,48.45"
2024-05-28_13-21-08.440657,"80.42,39.81"
2024-05-28_13-21-08.473424,"93.65,70.39"
2024-05-28_13-21-08.506210,"68.20,52.63"
2024-05-28_13-21-08.538979,"50.04,73.73"
2024-05-28_13-21-08.571689,"55.74,65.16"
2024-05-28_13-21-08.600398,"56.18,71.44"
2024-05-28_13-21-08.633151,"72.01,66.16"
2024-05-28_13-21-08.665922,"60.22,78.64"
2024-05-28_13-21-08.698681,"50.08,74.53"
2024-05-28_13-21-08.731542,"75.74,69.04"
2024-05-28_13-21-08.764266,"71.33,76.47"
2024-05-28_13-21-08.796967,"77.18,69.03"
2024-05-28_13-21-08.829688,"73.75,42.03"
2024-05-28_13-21-08.858464,"82.57,42.62"
2024-05-28_13-21-08.891243,"87.04,55.25"
2024-05-28_13-21-08.924022,"59.24,56.99"
2024-05-28_13-21-08.956824,"52.98,75.51"
2024-05-28_13-21-08.989528,"56.31,66.39"
2024-05-28_13-21-09.022270,"50.28,71.90"
2024-05-28_13-21-09.054939,"73.67,67.99"
2024-05-28_13-21-09.083744,"48.41,71.62"
2024-05-28_13-21-09.116680,"51.09,81.82"
2024-05-28_13-21-09.149327,"85.90,67.10"
2024-05-28_13-21-09.182060,"73.59,76.38"
2024-05-28_13-21-09.214823,"80.16,49.12"
2024-05-28_13-21-09.247567,"95.34,65.35"
2024-05-28_13-21-09.280438,"80.91,63.31"
2024-05-28_13-21-09.309188,"44.81,64.71"
2024-05-28_13-21-09.341916,"49.76,72.01"
2024-05-28_13-21-09.374590,"60.06,67.32"
2024-05-28_13-21-09.407316,"67.77,78.03"
2024-05-28_13-21-09.440182,"60.58,75.39"
2024-05-28_13-21-09.472891,"55.97,70.39"
2024-05-28_13-21-09.505559,"74.21,77.38"
2024-05-28_13-21-09.534370,"90.90,67.45"
2024-05-28_13-21-09.567174,"56.55,64.97"
2024-05-28_13-21-09.599935,"74.11,43.36"
2024-05-28_13-21-09.632642,"82.24,47.41"
2024-05-28_13-21-09.665407,"90.39,57.30"
2024-05-28_13-21-09.698167,"67.80,66.01"
2024-05-28_13-21-09.730893,"43.84,65.19"
2024-05-28_13-21-09.759618,"51.52,71.22"
2024-05-28_13-21-09.792386,"59.99,65.80"
2024-05-28_13-21-09.825139,"72.25,71.03"
2024-05-28_13-21-09.857982,"54.96,79.30"
2024-05-28_13-21-09.890695,"49.76,71.35"
2024-05-28_13-21-09.923502,"53.09,79.62"
2024-05-28_13-21-09.956134,"87.25,66.43"
2024-05-28_13-21-09.984926,"71.44,77.77"
2024-05-28_13-21-10.017660,"78.37,41.98"
2024-05-28_13-21-10.050444,"91.66,44.27"
2024-05-28_13-21-10.083188,"93.14,62.31"
2024-05-28_13-21-10.115973,"46.56,65.25"
2024-05-28_13-21-10.148723,"54.85,76.61"
2024-05-28_13-21-10.181398,"51.34,70.91"
2024-05-28_13-21-10.210183,"66.83,66.28"
2024-05-28_13-21-10.242960,"60.06,72.26"
2024-05-28_13-21-10.275737,"51.72,70.50"
2024-05-28_13-21-10.308477,"53.30,84.52"
2024-05-28_13-21-10.341258,"93.87,68.93"
2024-05-28_13-21-10.379955,"62.89,71.15"
2024-05-28_13-21-10.416232,"66.12,72.14"
2024-05-28_13-21-10.435814,"95.62,61.76"
2024-05-28_13-21-10.468369,"83.07,56.75"
2024-05-28_13-21-10.524461,"60.70,73.23"
2024-05-28_13-21-10.539207,"57.96,65.70"
2024-05-28_13-21-10.566576,"49.78,69.87"
2024-05-28_13-21-10.599281,"69.90,76.33"
2024-05-28_13-21-10.632036,"62.84,69.42"
2024-05-28_13-21-10.660839,"48.91,73.21"
2024-05-28_13-21-10.693610,"57.56,70.21"
2024-05-28_13-21-10.726388,"98.02,77.66"
2024-05-28_13-21-10.759049,"76.52,78.37"
2024-05-28_13-21-10.791852,"67.43,46.79"
2024-05-28_13-21-10.824569,"80.70,39.72"
2024-05-28_13-21-10.857288,"93.31,71.05"
2024-05-28_13-21-10.886016,"56.58,58.13"
2024-05-28_13-21-10.918818,"48.22,72.74"
2024-05-28_13-21-10.951594,"55.90,65.25"
2024-05-28_13-21-10.984331,"51.42,72.51"
2024-05-28_13-21-11.017100,"67.35,67.20"
2024-05-28_13-21-11.049870,"53.11,79.03"
2024-05-28_13-21-11.082606,"50.07,75.89"
2024-05-28_13-21-11.111382,"72.36,75.44"
2024-05-28_13-21-11.144102,"88.93,70.78"
2024-05-28_13-21-11.176873,"74.74,69.70"
2024-05-28_13-21-11.209626,"74.67,41.89"
2024-05-28_13-21-11.242400,"84.05,60.95"
2024-05-28_13-21-11.275166,"73.98,47.21"
2024-05-28_13-21-11.307837,"55.29,72.15"
2024-05-28_13-21-11.336624,"57.23,75.39"
2024-05-28_13-21-11.369388,"56.37,66.72"
2024-05-28_13-21-11.402138,"64.64,74.58"
2024-05-28_13-21-11.434880,"64.81,69.31"
2024-05-28_13-21-11.467672,"48.71,72.45"
2024-05-28_13-21-11.500414,"52.85,87.35"
2024-05-28_13-21-11.533159,"83.62,77.15"
2024-05-28_13-21-11.565974,"72.82,75.35"
2024-05-28_13-21-11.594769,"80.19,49.06"
2024-05-28_13-21-11.627572,"94.44,41.30"
2024-05-28_13-21-11.660231,"80.97,50.50"
2024-05-28_13-21-11.693227,"44.22,64.98"
2024-05-28_13-21-11.725813,"51.60,71.47"
2024-05-28_13-21-11.758869,"59.40,64.82"
2024-05-28_13-21-11.791150,"66.71,77.20"
2024-05-28_13-21-11.820030,"59.55,73.02"
2024-05-28_13-21-11.852774,"51.92,69.26"
2024-05-28_13-21-11.885528,"57.33,76.53"
2024-05-28_13-21-11.918295,"85.70,68.22"
2024-05-28_13-21-11.951117,"59.35,79.30"
2024-05-28_13-21-11.983735,"75.72,76.67"
2024-05-28_13-21-12.016464,"85.67,48.52"
2024-05-28_13-21-12.045217,"101.02,53.43"
2024-05-28_13-21-12.078063,"64.25,63.58"
2024-05-28_13-21-12.110766,"51.04,66.14"
2024-05-28_13-21-12.143662,"51.85,69.90"
2024-05-28_13-21-12.176347,"60.39,65.90"
2024-05-28_13-21-12.209067,"69.92,70.26"
2024-05-28_13-21-12.241718,"53.08,79.45"
2024-05-28_13-21-12.270514,"50.37,71.35"
2024-05-28_13-21-12.303281,"69.87,76.87"
2024-05-28_13-21-12.336074,"84.93,65.61"
2024-05-28_13-21-12.368861,"71.00,78.01"
2024-05-28_13-21-12.401623,"70.73,82.10"
2024-05-28_13-21-12.434319,"59.25,68.87"
2024-05-28_13-21-12.467044,"77.91,59.80"
2024-05-28_13-21-12.495775,"48.64,65.91"
2024-05-28_13-21-12.528578,"55.98,76.25"
2024-05-28_13-21-12.561355,"51.75,71.05"
2024-05-28_13-21-12.594090,"66.77,66.79"
2024-05-28_13-21-12.626924,"58.81,72.63"
2024-05-28_13-21-12.659632,"50.22,71.21"
2024-05-28_13-21-12.692331,"76.90,89.01"
2024-05-28_13-21-12.721084,"75.30,81.35"
2024-05-28_13-21-12.753854,"64.59,51.07"
2024-05-28_13-21-12.786832,"76.04,36.55"
2024-05-28_13-21-12.819544,"91.78,55.95"
2024-05-28_13-21-12.852147,"80.60,55.17"
2024-05-28_13-21-12.884908,"54.83,74.79"
2024-05-28_13-21-12.917589,"57.55,65.94"
2024-05-28_13-21-12.946365,"45.74,70.18"
2024-05-28_13-21-12.979125,"58.64,76.15"
2024-05-28_13-21-13.011941,"73.02,68.83"
2024-05-28_13-21-13.044700,"50.52,74.09"
2024-05-28_13-21-13.077476,"56.26,74.72"
2024-05-28_13-21-13.111207,"76.70,80.50"
2024-05-28_13-21-13.142911,"74.20,76.26"
2024-05-28_13-21-13.171627,"63.69,46.58"
2024-05-28_13-21-13.204409,"78.28,69.42"
2024-05-28_13-21-13.237172,"111.01,68.78"
2024-05-28_13-21-13.269940,"60.28,64.35"
2024-05-28_13-21-13.302668,"49.19,72.09"
2024-05-28_13-21-13.335456,"55.64,64.84"
2024-05-28_13-21-13.368183,"54.03,71.57"
2024-05-28_13-21-13.396920,"78.18,68.21"
2024-05-28_13-21-13.429683,"69.52,90.83"
2024-05-28_13-21-13.462484,"68.08,78.84"
2024-05-28_13-21-13.495196,"79.69,75.90"
2024-05-28_13-21-13.528079,"68.48,74.27"
2024-05-28_13-21-13.560722,"77.68,50.32"
2024-05-28_13-21-13.593513,"80.32,71.81"
2024-05-28_13-21-13.622504,"100.45,60.37"
2024-05-28_13-21-13.655030,"72.20,67.35"
2024-05-28_13-21-13.687761,"62.51,71.00"
2024-05-28_13-21-13.720519,"58.70,75.06"
2024-05-28_13-21-13.753282,"56.84,68.28"
2024-05-28_13-21-13.786070,"67.08,72.49"
2024-05-28_13-21-13.818750,"63.94,68.60"
2024-05-28_13-21-13.847504,"48.57,80.64"
2024-05-28_13-21-13.880286,"81.19,81.87"
2024-05-28_13-21-13.914118,"56.32,68.49"
2024-05-28_13-21-13.945872,"72.65,76.17"
2024-05-28_13-21-13.978616,"81.19,51.08"
2024-05-28_13-21-14.011350,"100.03,83.06"
2024-05-28_13-21-14.044103,"84.93,61.30"
2024-05-28_13-21-14.073173,"62.58,66.29"
2024-05-28_13-21-14.105670,"49.48,71.14"
2024-05-28_13-21-14.138382,"59.30,65.10"
2024-05-28_13-21-14.171297,"71.72,77.29"
2024-05-28_13-21-14.203875,"59.58,72.56"
2024-05-28_13-21-14.236694,"53.70,79.15"
2024-05-28_13-21-14.269372,"62.65,79.67"
2024-05-28_13-21-14.298097,"81.40,75.01"
2024-05-28_13-21-14.330840,"55.58,78.70"
2024-05-28_13-21-14.363748,"74.09,63.39"
2024-05-28_13-21-14.396466,"82.05,49.86"
2024-05-28_13-21-14.429222,"66.47,73.59"
2024-05-28_13-21-14.461926,"65.51,78.03"
2024-05-28_13-21-14.494624,"53.11,67.10"
2024-05-28_13-21-14.523355,"52.06,70.84"
2024-05-28_13-21-14.556121,"60.42,66.18"
2024-05-28_13-21-14.589018,"74.52,70.44"
2024-05-28_13-21-14.621802,"54.75,79.93"
2024-05-28_13-21-14.654439,"47.57,72.77"
2024-05-28_13-21-14.687326,"79.84,81.53"
2024-05-28_13-21-14.719933,"66.34,70.05"
2024-05-28_13-21-14.752621,"68.18,63.57"
2024-05-28_13-21-14.781433,"78.32,69.09"
2024-05-28_13-21-14.814243,"97.01,67.55"
2024-05-28_13-21-14.847018,"85.00,60.05"
2024-05-28_13-21-14.879750,"63.93,66.16"
2024-05-28_13-21-14.912499,"52.54,76.50"
2024-05-28_13-21-14.945290,"51.87,71.44"
2024-05-28_13-21-14.977973,"71.62,66.15"
2024-05-28_13-21-15.006708,"60.86,73.72"
2024-05-28_13-21-15.039477,"54.08,68.77"
2024-05-28_13-21-15.072287,"67.78,84.98"
2024-05-28_13-21-15.105065,"75.26,77.14"
2024-05-28_13-21-15.137829,"61.80,68.16"
2024-05-28_13-21-15.170513,"71.01,37.38"
2024-05-28_13-21-15.203279,"84.15,62.81"
2024-05-28_13-21-15.232031,"89.33,50.91"
2024-05-28_13-21-15.264780,"71.40,74.21"
2024-05-28_13-21-15.297546,"54.44,65.96"
2024-05-28_13-21-15.330312,"45.27,70.21"
2024-05-28_13-21-15.363073,"60.32,76.67"
2024-05-28_13-21-15.397197,"70.21,68.80"
2024-05-28_13-21-15.428496,"76.05,81.25"
2024-05-28_13-21-15.457332,"80.22,65.12"
2024-05-28_13-21-15.490087,"86.71,82.76"
2024-05-28_13-21-15.522819,"73.32,77.05"
2024-05-28_13-21-15.555761,"62.79,48.42"
2024-05-28_13-21-15.588439,"76.36,65.65"
2024-05-28_13-21-15.621098,"107.29,58.86"
2024-05-28_13-21-15.653808,"56.45,65.35"
2024-05-28_13-21-15.682637,"62.52,72.33"
2024-05-28_13-21-15.715338,"56.09,65.64"
2024-05-28_13-21-15.748093,"53.72,71.35"
2024-05-28_13-21-15.780891,"72.02,66.43"
2024-05-28_13-21-15.813630,"60.64,79.27"
2024-05-28_13-21-15.846436,"48.80,73.85"
2024-05-28_13-21-15.879109,"83.00,77.59"
2024-05-28_13-21-15.907837,"70.53,75.23"
2024-05-28_13-21-15.940667,"74.03,69.15"
2024-05-28_13-21-15.973397,"68.04,43.16"
2024-05-28_13-21-16.006194,"87.98,72.27"
2024-05-28_13-21-16.038981,"88.12,50.43"
2024-05-28_13-21-16.071648,"69.66,71.63"
2024-05-28_13-21-16.104436,"57.55,75.69"
2024-05-28_13-21-16.133173,"58.26,67.56"
2024-05-28_13-21-16.165911,"67.97,71.37"
2024-05-28_13-21-16.198690,"68.59,68.44"
2024-05-28_13-21-16.231509,"47.86,81.02"
2024-05-28_13-21-16.264235,"80.38,81.31"
2024-05-28_13-21-16.296964,"56.38,68.93"
2024-05-28_13-21-16.329694,"71.91,76.19"
2024-05-28_13-21-16.358424,"77.56,52.17"
2024-05-28_13-21-16.391226,"99.01,83.90"
2024-05-28_13-21-16.423966,"73.21,61.72"
2024-05-28_13-21-16.456804,"50.56,66.16"
2024-05-28_13-21-16.489513,"45.60,73.21"
2024-05-28_13-21-16.522297,"59.20,65.11"
2024-05-28_13-21-16.554930,"66.89,76.62"
2024-05-28_13-21-16.583692,"58.14,74.49"
2024-05-28_13-21-16.616460,"50.74,75.52"
2024-05-28_13-21-16.649287,"98.32,66.85"
2024-05-28_13-21-16.682092,"78.81,72.95"
2024-05-28_13-21-16.714818,"56.93,78.33"
2024-05-28_13-21-16.747573,"76.48,43.80"
2024-05-28_13-21-16.780351,"86.27,63.50"
2024-05-28_13-21-16.808991,"74.77,58.52"
2024-05-28_13-21-16.841990,"59.17,77.13"
2024-05-28_13-21-16.874567,"52.83,66.84"
2024-05-28_13-21-16.907341,"52.78,71.06"
2024-05-28_13-21-16.940147,"73.39,67.07"
2024-05-28_13-21-16.972879,"61.74,72.33"
2024-05-28_13-21-17.005542,"48.92,79.29"
2024-05-28_13-21-17.034284,"81.96,77.03"
2024-05-28_13-21-17.067041,"74.33,76.13"
2024-05-28_13-21-17.099842,"66.79,68.25"
2024-05-28_13-21-17.132580,"76.07,43.57"
2024-05-28_13-21-17.165361,"86.47,71.07"
2024-05-28_13-21-17.198136,"72.90,49.16"
2024-05-28_13-21-17.230839,"72.46,72.85"
2024-05-28_13-21-17.259569,"57.21,65.37"
2024-05-28_13-21-17.292459,"57.29,76.44"
2024-05-28_13-21-17.325128,"49.89,72.38"
2024-05-28_13-21-17.357869,"67.89,67.67"
2024-05-28_13-21-17.390652,"53.15,81.66"
2024-05-28_13-21-17.423470,"82.57,63.97"
2024-05-28_13-21-17.456141,"58.59,71.89"
2024-05-28_13-21-17.484870,"63.26,77.65"
2024-05-28_13-21-17.517671,"73.84,50.68"
2024-05-28_13-21-17.550410,"91.51,57.39"
2024-05-28_13-21-17.583205,"93.35,66.35"
2024-05-28_13-21-17.615930,"57.59,66.49"
2024-05-28_13-21-17.648746,"49.73,71.25"
2024-05-28_13-21-17.681472,"60.58,66.64"
2024-05-28_13-21-17.710133,"64.23,70.75"
2024-05-28_13-21-17.742917,"61.87,77.92"
2024-05-28_13-21-17.775683,"49.63,81.85"
2024-05-28_13-21-17.808496,"81.17,66.94"
2024-05-28_13-21-17.841224,"81.93,73.87"
2024-05-28_13-21-17.874003,"66.91,78.43"
2024-05-28_13-21-17.906732,"75.58,63.06"
2024-05-28_13-21-17.939492,"78.89,66.78"
2024-05-28_13-21-17.968204,"99.73,51.66"
2024-05-28_13-21-18.000964,"57.47,67.22"
2024-05-28_13-21-18.033763,"67.74,76.03"
2024-05-28_13-21-18.066554,"50.48,71.34"
2024-05-28_13-21-18.099293,"59.21,67.01"
2024-05-28_13-21-18.132050,"63.25,71.87"
2024-05-28_13-21-18.165079,"58.98,68.67"
2024-05-28_13-21-18.193587,"73.72,79.62"
2024-05-28_13-21-18.226324,"77.41,78.32"
2024-05-28_13-21-18.259182,"61.92,68.79"
2024-05-28_13-21-18.291873,"72.63,59.39"
2024-05-28_13-21-18.324594,"84.65,59.81"
2024-05-28_13-21-18.357398,"98.51,51.31"
2024-05-28_13-21-18.389988,"71.09,74.39"
2024-05-28_13-21-18.418801,"58.40,66.97"
2024-05-28_13-21-18.451559,"46.20,69.56"
2024-05-28_13-21-18.484344,"58.08,76.81"
2024-05-28_13-21-18.517066,"89.21,71.06"
2024-05-28_13-21-18.549829,"48.64,75.21"
2024-05-28_13-21-18.582611,"80.39,67.97"
2024-05-28_13-21-18.615273,"86.02,84.37"
2024-05-28_13-21-18.644102,"73.22,77.16"
2024-05-28_13-21-18.676890,"64.95,46.74"
2024-05-28_13-21-18.709637,"91.08,57.43"
2024-05-28_13-21-18.742346,"90.71,50.57"
2024-05-28_13-21-18.775137,"70.00,77.92"
2024-05-28_13-21-18.807864,"49.35,71.56"
2024-05-28_13-21-18.840643,"56.56,66.15"
2024-05-28_13-21-18.869497,"52.87,71.66"
2024-05-28_13-21-18.902164,"72.44,67.85"
2024-05-28_13-21-18.934895,"47.28,82.64"
2024-05-28_13-21-18.967704,"86.31,72.48"
2024-05-28_13-21-19.000410,"63.31,71.38"
2024-05-28_13-21-19.033137,"67.76,58.68"
2024-05-28_13-21-19.065926,"79.20,49.64"
2024-05-28_13-21-19.094700,"94.56,60.74"
2024-05-28_13-21-19.127430,"83.25,62.03"
2024-05-28_13-21-19.160187,"61.88,66.84"
2024-05-28_13-21-19.192967,"45.09,70.32"
2024-05-28_13-21-19.225743,"59.98,76.58"
2024-05-28_13-21-19.258447,"66.52,68.76"
2024-05-28_13-21-19.291162,"55.05,72.86"
2024-05-28_13-21-19.319906,"53.49,72.11"
2024-05-28_13-21-19.352660,"79.88,80.48"
2024-05-28_13-21-19.385467,"74.16,77.12"
2024-05-28_13-21-19.418213,"58.86,47.69"
2024-05-28_13-21-19.450978,"76.28,40.72"
2024-05-28_13-21-19.483856,"105.81,65.43"
2024-05-28_13-21-19.516448,"57.32,63.85"
2024-05-28_13-21-19.545211,"62.85,72.94"
2024-05-28_13-21-19.577979,"56.76,66.06"
2024-05-28_13-21-19.610755,"52.85,70.61"
2024-05-28_13-21-19.643756,"73.43,67.80"
2024-05-28_13-21-19.676333,"64.64,79.01"
2024-05-28_13-21-19.709056,"48.40,85.61"
2024-05-28_13-21-19.741722,"70.62,79.80"
2024-05-28_13-21-19.770537,"70.26,75.62"
2024-05-28_13-21-19.803285,"73.99,68.57"
2024-05-28_13-21-19.836050,"70.02,43.31"
2024-05-28_13-21-19.868805,"91.46,72.13"
2024-05-28_13-21-19.901575,"78.05,49.64"
2024-05-28_13-21-19.934329,"54.47,71.79"
2024-05-28_13-21-19.967035,"58.97,76.44"
2024-05-28_13-21-19.995797,"56.59,66.77"
2024-05-28_13-21-20.028577,"68.02,71.44"
2024-05-28_13-21-20.061322,"72.45,69.57"
2024-05-28_13-21-20.094088,"47.29,79.97"
2024-05-28_13-21-20.126938,"82.53,76.60"
2024-05-28_13-21-20.159718,"57.19,70.75"
2024-05-28_13-21-20.192325,"72.40,61.11"
2024-05-28_13-21-20.221072,"76.12,49.57"
2024-05-28_13-21-20.253827,"101.18,61.04"
2024-05-28_13-21-20.286613,"80.19,61.85"
2024-05-28_13-21-20.319342,"55.49,65.39"
2024-05-28_13-21-20.352144,"50.96,71.31"
2024-05-28_13-21-20.384959,"61.77,66.29"
2024-05-28_13-21-20.417810,"66.84,76.02"
2024-05-28_13-21-20.446387,"60.29,73.30"
2024-05-28_13-21-20.479149,"52.25,80.98"
2024-05-28_13-21-20.511903,"61.30,76.86"
2024-05-28_13-21-20.544781,"69.19,84.34"
2024-05-28_13-21-20.577468,"52.64,72.87"
2024-05-28_13-21-20.610177,"76.40,61.49"
2024-05-28_13-21-20.642904,"84.60,70.32"
2024-05-28_13-21-20.675696,"83.78,48.71"
2024-05-28_13-21-20.704450,"72.27,77.87"
2024-05-28_13-21-20.737143,"51.59,65.59"
2024-05-28_13-21-20.769958,"52.22,70.71"
2024-05-28_13-21-20.802712,"73.53,68.34"
2024-05-28_13-21-20.835535,"60.78,71.58"
2024-05-28_13-21-20.868262,"49.64,89.06"
2024-05-28_13-21-20.900929,"67.52,79.01"
2024-05-28_13-21-20.929719,"73.90,75.43"
2024-05-28_13-21-20.962478,"67.27,68.50"
2024-05-28_13-21-20.995261,"76.59,42.29"
2024-05-28_13-21-21.027990,"87.16,72.29"
2024-05-28_13-21-21.062778,"71.98,48.33"
2024-05-28_13-21-21.093522,"57.35,72.97"
2024-05-28_13-21-21.126162,"56.34,66.04"
2024-05-28_13-21-21.154973,"56.42,76.03"
2024-05-28_13-21-21.187728,"67.29,72.89"
2024-05-28_13-21-21.220486,"69.63,68.86"
2024-05-28_13-21-21.253302,"52.35,79.03"
2024-05-28_13-21-21.286089,"82.26,68.00"
2024-05-28_13-21-21.318757,"55.59,81.44"
2024-05-28_13-21-21.351526,"72.83,77.89"
2024-05-28_13-21-21.381011,"70.64,49.31"
2024-05-28_13-21-21.413051,"84.22,54.12"
2024-05-28_13-21-21.445855,"93.42,65.05"
2024-05-28_13-21-21.478617,"57.38,66.05"
2024-05-28_13-21-21.511346,"49.79,71.34"
2024-05-28_13-21-21.544065,"60.52,66.41"
2024-05-28_13-21-21.576750,"62.21,70.26"
2024-05-28_13-21-21.605557,"77.94,83.88"
2024-05-28_13-21-21.638348,"47.31,71.30"
2024-05-28_13-21-21.671180,"51.55,79.38"
2024-05-28_13-21-21.703888,"87.39,67.52"
2024-05-28_13-21-21.736735,"68.42,78.95"
2024-05-28_13-21-21.769355,"75.84,42.55"
2024-05-28_13-21-21.802099,"85.61,44.55"
2024-05-28_13-21-21.830849,"81.32,42.68"
2024-05-28_13-21-21.863623,"60.10,66.31"
2024-05-28_13-21-21.896381,"53.55,76.17"
2024-05-28_13-21-21.929137,"53.50,71.87"
2024-05-28_13-21-21.962175,"70.79,66.35"
2024-05-28_13-21-21.994646,"62.34,72.28"
2024-05-28_13-21-22.027541,"53.40,70.36"
2024-05-28_13-21-22.056151,"68.52,81.91"
2024-05-28_13-21-22.088863,"74.94,77.70"
2024-05-28_13-21-22.121702,"63.80,69.34"
2024-05-28_13-21-22.154428,"73.76,36.61"
2024-05-28_13-21-22.187214,"87.01,60.92"
2024-05-28_13-21-22.219989,"90.76,52.00"
2024-05-28_13-21-22.252727,"74.20,73.61"
2024-05-28_13-21-22.281406,"55.47,65.78"
2024-05-28_13-21-22.314272,"47.47,69.50"
2024-05-28_13-21-22.346931,"60.61,77.45"
2024-05-28_13-21-22.379705,"66.62,68.70"
2024-05-28_13-21-22.412602,"49.30,73.62"
2024-05-28_13-21-22.445357,"79.42,66.74"
2024-05-28_13-21-22.477929,"74.01,81.67"
2024-05-28_13-21-22.506683,"72.90,77.19"
2024-05-28_13-21-22.539436,"71.95,47.61"
2024-05-28_13-21-22.572246,"91.38,57.90"
2024-05-28_13-21-22.605132,"82.70,48.77"
2024-05-28_13-21-22.637779,"58.69,76.98"
2024-05-28_13-21-22.670562,"51.25,73.58"
2024-05-28_13-21-22.703257,"56.15,65.24"
2024-05-28_13-21-22.731982,"52.18,71.29"
2024-05-28_13-21-22.764787,"67.74,69.52"
2024-05-28_13-21-22.797521,"47.97,83.28"
2024-05-28_13-21-22.830273,"83.62,71.13"
2024-05-28_13-21-22.863070,"63.16,70.85"
2024-05-28_13-21-22.895881,"68.96,58.21"
2024-05-28_13-21-22.928567,"82.29,62.10"
2024-05-28_13-21-22.957264,"88.18,77.11"
2024-05-28_13-21-22.990020,"75.88,61.51"
2024-05-28_13-21-23.022779,"50.71,66.18"
2024-05-28_13-21-23.055700,"45.62,69.79"
2024-05-28_13-21-23.088406,"60.50,76.29"
2024-05-28_13-21-23.121144,"72.30,68.96"
2024-05-28_13-21-23.153864,"49.51,73.83"
2024-05-28_13-21-23.186530,"72.04,85.77"
2024-05-28_13-21-23.215343,"86.66,83.41"
2024-05-28_13-21-23.248082,"73.51,62.05"
2024-05-28_13-21-23.280950,"64.24,66.58"
2024-05-28_13-21-23.313673,"77.81,39.94"
2024-05-28_13-21-23.346513,"109.64,68.88"
2024-05-28_13-21-23.379157,"60.33,64.47"
2024-05-28_13-21-23.411864,"49.54,72.21"
2024-05-28_13-21-23.440662,"56.91,64.81"
2024-05-28_13-21-23.473352,"52.75,72.38"
2024-05-28_13-21-23.506172,"77.77,68.25"
2024-05-28_13-21-23.538912,"49.89,79.18"
2024-05-28_13-21-23.571677,"50.83,77.74"
2024-05-28_13-21-23.604476,"86.71,66.34"
2024-05-28_13-21-23.637104,"69.53,74.02"
2024-05-28_13-21-23.666007,"61.07,78.78"
2024-05-28_13-21-23.698645,"84.28,53.28"
2024-05-28_13-21-23.731429,"88.57,60.62"
2024-05-28_13-21-23.764211,"68.43,68.18"
2024-05-28_13-21-23.796967,"60.56,71.41"
2024-05-28_13-21-23.829674,"58.24,75.19"
2024-05-28_13-21-23.862376,"56.15,68.16"
2024-05-28_13-21-23.891166,"65.90,72.68"
2024-05-28_13-21-23.923959,"61.01,68.88"
2024-05-28_13-21-23.956771,"49.51,90.56"
2024-05-28_13-21-23.989549,"92.09,79.46"
2024-05-28_13-21-24.022274,"56.35,67.60"
2024-05-28_13-21-24.054974,"72.55,61.17"
2024-05-28_13-21-24.087691,"83.97,52.13"
2024-05-28_13-21-24.116478,"91.47,72.85"
2024-05-28_13-21-24.149204,"76.32,60.83"
2024-05-28_13-21-24.182031,"48.48,65.96"
2024-05-28_13-21-24.214770,"49.75,70.75"
2024-05-28_13-21-24.247513,"59.46,65.37"
2024-05-28_13-21-24.280260,"74.73,77.95"
2024-05-28_13-21-24.313092,"49.13,73.91"
2024-05-28_13-21-24.341813,"51.36,71.09"
2024-05-28_13-21-24.374587,"79.35,76.22"
2024-05-28_13-21-24.407278,"74.69,71.33"
2024-05-28_13-21-24.440078,"59.82,63.31"
2024-05-28_13-21-24.472844,"78.77,43.94"
2024-05-28_13-21-24.505618,"102.50,67.83"
2024-05-28_13-21-24.538297,"67.45,58.30"
2024-05-28_13-21-24.567041,"64.84,76.49"
2024-05-28_13-21-24.599812,"55.48,66.19"
2024-05-28_13-21-24.632629,"51.66,71.35"
2024-05-28_13-21-24.665368,"66.76,67.47"
2024-05-28_13-21-24.698100,"76.04,75.03"
2024-05-28_13-21-24.730881,"59.22,71.54"
2024-05-28_13-21-24.763634,"84.61,66.89"
2024-05-28_13-21-24.792343,"73.29,75.86"
2024-05-28_13-21-24.825144,"71.89,50.13"
2024-05-28_13-21-24.857886,"83.40,70.07"
2024-05-28_13-21-24.890629,"98.91,65.03"
2024-05-28_13-21-24.923395,"54.66,66.04"
2024-05-28_13-21-24.956214,"66.55,71.80"
2024-05-28_13-21-24.988875,"59.00,65.24"
2024-05-28_13-21-25.017565,"69.91,77.42"
2024-05-28_13-21-25.050387,"62.01,73.23"
2024-05-28_13-21-25.083263,"54.47,69.22"
2024-05-28_13-21-25.115971,"58.90,76.07"
2024-05-28_13-21-25.148737,"90.08,67.98"
2024-05-28_13-21-25.181423,"56.58,78.54"
2024-05-28_13-21-25.214126,"74.24,62.53"
2024-05-28_13-21-25.242866,"83.97,48.58"
2024-05-28_13-21-25.275646,"105.27,55.29"
2024-05-28_13-21-25.308454,"73.07,78.39"
2024-05-28_13-21-25.341230,"51.27,66.84"
2024-05-28_13-21-25.374039,"50.65,70.75"
2024-05-28_13-21-25.406770,"58.83,66.44"
2024-05-28_13-21-25.439444,"68.48,71.85"
2024-05-28_13-21-25.468203,"50.35,79.75"
2024-05-28_13-21-25.500958,"78.19,83.69"
2024-05-28_13-21-25.533703,"79.70,78.64"
2024-05-28_13-21-25.566478,"66.70,69.95"
2024-05-28_13-21-25.599277,"71.43,62.90"
2024-05-28_13-21-25.632063,"80.50,59.74"
2024-05-28_13-21-25.664663,"90.88,47.39"
2024-05-28_13-21-25.693440,"68.92,74.04"
2024-05-28_13-21-25.726286,"52.97,67.11"
2024-05-28_13-21-25.759148,"57.01,77.30"
2024-05-28_13-21-25.791789,"50.49,71.65"
2024-05-28_13-21-25.824547,"74.32,68.04"
2024-05-28_13-21-25.857293,"54.90,74.83"
2024-05-28_13-21-25.890086,"50.02,70.30"
2024-05-28_13-21-25.922700,"75.22,84.09"
2024-05-28_13-21-25.951495,"73.55,77.81"
2024-05-28_13-21-25.984268,"67.96,49.63"
2024-05-28_13-21-26.017056,"79.89,67.11"
2024-05-28_13-21-26.049784,"96.63,71.29"
2024-05-28_13-21-26.082589,"55.50,65.28"
2024-05-28_13-21-26.115309,"65.09,71.71"
2024-05-28_13-21-26.148076,"61.83,66.64"
2024-05-28_13-21-26.176755,"47.92,69.77"
2024-05-28_13-21-26.209571,"67.24,77.06"
2024-05-28_13-21-26.242289,"53.22,70.64"
2024-05-28_13-21-26.275823,"49.41,77.03"
2024-05-28_13-21-26.308088,"89.62,67.63"
2024-05-28_13-21-26.340626,"68.24,79.53"
2024-05-28_13-21-26.373355,"73.60,62.25"
2024-05-28_13-21-26.402168,"77.62,44.02"
2024-05-28_13-21-26.434803,"99.46,58.45"
2024-05-28_13-21-26.467666,"56.79,67.03"
2024-05-28_13-21-26.500394,"64.73,75.96"
2024-05-28_13-21-26.533145,"51.44,71.59"
2024-05-28_13-21-26.565875,"56.25,65.98"
2024-05-28_13-21-26.598564,"63.57,73.32"
2024-05-28_13-21-26.627374,"58.75,69.04"
2024-05-28_13-21-26.660176,"77.79,90.44"
2024-05-28_13-21-26.692908,"79.32,80.30"
2024-05-28_13-21-26.725693,"54.96,71.68"
2024-05-28_13-21-26.758443,"60.75,60.03"
2024-05-28_13-21-26.791158,"83.83,59.02"
2024-05-28_13-21-26.823850,"85.05,69.46"
2024-05-28_13-21-26.852680,"77.84,60.78"
2024-05-28_13-21-26.885399,"48.17,67.24"
2024-05-28_13-21-26.918187,"44.65,70.19"
2024-05-28_13-21-26.950985,"58.84,75.87"
2024-05-28_13-21-26.983854,"72.42,69.95"
2024-05-28_13-21-27.016459,"53.43,73.38"
2024-05-28_13-21-27.049138,"54.82,85.50"
2024-05-28_13-21-27.081851,"79.05,78.35"
2024-05-28_13-21-27.111467,"73.88,77.11"
2024-05-28_13-21-27.143522,"60.49,65.83"
2024-05-28_13-21-27.176441,"76.53,39.83"
2024-05-28_13-21-27.209043,"107.45,65.31"
2024-05-28_13-21-27.241771,"71.32,65.02"
2024-05-28_13-21-27.274461,"61.49,72.78"
2024-05-28_13-21-27.303372,"56.88,65.87"
2024-05-28_13-21-27.336075,"52.92,70.70"
2024-05-28_13-21-27.368802,"68.66,67.62"
2024-05-28_13-21-27.401653,"58.64,79.46"
2024-05-28_13-21-27.434394,"48.83,84.40"
2024-05-28_13-21-27.467031,"83.05,77.92"
2024-05-28_13-21-27.499742,"71.37,76.05"
2024-05-28_13-21-27.528488,"74.58,68.71"
2024-05-28_13-21-27.561502,"68.71,62.80"
2024-05-28_13-21-27.594141,"90.66,85.26"
2024-05-28_13-21-27.626860,"75.68,49.54"
2024-05-28_13-21-27.659613,"52.49,71.63"
2024-05-28_13-21-27.692262,"56.19,75.42"
2024-05-28_13-21-27.725085,"56.96,67.53"
2024-05-28_13-21-27.753825,"88.97,75.24"
2024-05-28_13-21-27.786569,"60.98,69.32"
2024-05-28_13-21-27.819317,"48.48,93.13"
2024-05-28_13-21-27.852088,"79.74,80.01"
2024-05-28_13-21-27.884902,"56.69,68.23"
2024-05-28_13-21-27.917631,"73.37,61.61"
2024-05-28_13-21-27.950311,"80.44,51.08"
2024-05-28_13-21-27.979084,"90.11,74.16"
2024-05-28_13-21-28.011864,"77.50,61.76"
2024-05-28_13-21-28.044602,"45.18,65.28"
2024-05-28_13-21-28.077451,"50.92,71.11"
2024-05-28_13-21-28.110229,"61.59,66.26"
2024-05-28_13-21-28.142970,"76.59,77.27"
2024-05-28_13-21-28.175675,"50.69,73.16"
2024-05-28_13-21-28.204380,"50.83,72.47"
2024-05-28_13-21-28.237165,"82.13,72.29"
2024-05-28_13-21-28.270846,"74.66,70.85"
2024-05-28_13-21-28.302782,"62.13,78.86"
2024-05-28_13-21-28.335490,"77.50,42.80"
2024-05-28_13-21-28.368540,"100.57,64.78"
2024-05-28_13-21-28.400990,"78.93,57.72"
2024-05-28_13-21-28.429675,"60.90,77.90"
2024-05-28_13-21-28.462439,"53.70,65.64"
2024-05-28_13-21-28.495248,"53.02,70.95"
2024-05-28_13-21-28.528007,"68.93,67.28"
2024-05-28_13-21-28.560739,"56.14,72.82"
2024-05-28_13-21-28.593508,"48.21,84.58"
2024-05-28_13-21-28.626217,"98.72,65.52"
2024-05-28_13-21-28.654975,"74.44,75.79"
2024-05-28_13-21-28.687754,"68.03,68.15"
2024-05-28_13-21-28.720500,"77.96,42.95"
2024-05-28_13-21-28.753306,"79.26,78.20"
2024-05-28_13-21-28.786034,"55.32,66.28"
2024-05-28_13-21-28.818820,"57.89,73.50"
2024-05-28_13-21-28.851471,"55.47,66.81"
2024-05-28_13-21-28.880286,"56.35,76.23"
2024-05-28_13-21-28.913117,"65.86,71.97"
2024-05-28_13-21-28.945796,"64.74,69.47"
2024-05-28_13-21-28.978538,"52.91,80.74"
2024-05-28_13-21-29.011420,"80.31,68.86"
2024-05-28_13-21-29.044077,"56.39,79.84"
2024-05-28_13-21-29.076802,"73.47,63.85"
2024-05-28_13-21-29.105573,"72.07,49.46"
2024-05-28_13-21-29.138399,"82.40,54.33"
2024-05-28_13-21-29.171077,"82.71,65.49"
2024-05-28_13-21-29.203867,"60.08,65.78"
2024-05-28_13-21-29.236605,"49.79,71.33"
2024-05-28_13-21-29.269384,"61.66,66.60"
2024-05-28_13-21-29.302115,"61.37,70.15"
2024-05-28_13-21-29.334792,"59.47,79.00"
2024-05-28_13-21-29.363613,"47.95,75.64"
2024-05-28_13-21-29.396390,"84.52,70.79"
2024-05-28_13-21-29.429312,"66.85,71.60"
2024-05-28_13-21-29.461970,"69.80,79.35"
2024-05-28_13-21-29.494730,"75.38,42.70"
2024-05-28_13-21-29.527396,"81.66,64.07"
2024-05-28_13-21-29.560086,"90.55,60.68"
2024-05-28_13-21-29.588861,"58.75,66.70"
2024-05-28_13-21-29.621675,"53.01,75.74"
2024-05-28_13-21-29.654400,"51.49,71.52"
2024-05-28_13-21-29.687204,"70.74,67.42"
2024-05-28_13-21-29.719974,"60.25,71.96"
2024-05-28_13-21-29.752718,"52.62,80.87"
2024-05-28_13-21-29.785365,"76.78,84.50"
2024-05-28_13-21-29.814120,"63.88,76.98"
2024-05-28_13-21-29.846951,"64.12,69.08"
2024-05-28_13-21-29.879692,"74.58,58.62"
2024-05-28_13-21-29.912451,"85.73,84.67"
2024-05-28_13-21-29.947222,"90.28,51.69"
2024-05-28_13-21-29.977962,"60.76,74.11"
2024-05-28_13-21-30.010653,"57.31,65.66"
2024-05-28_13-21-30.039428,"47.00,69.60"
2024-05-28_13-21-30.072212,"60.95,77.40"
2024-05-28_13-21-30.104989,"66.85,68.95"
2024-05-28_13-21-30.137834,"48.93,72.95"
2024-05-28_13-21-30.170548,"84.67,84.95"
2024-05-28_13-21-30.203321,"87.15,82.99"
2024-05-28_13-21-30.235942,"72.92,77.09"
2024-05-28_13-21-30.264740,"66.32,48.05"
2024-05-28_13-21-30.297492,"76.82,57.57"
2024-05-28_13-21-30.330280,"90.32,48.82"
2024-05-28_13-21-30.363038,"68.03,78.47"
2024-05-28_13-21-30.395863,"48.12,71.99"
2024-05-28_13-21-30.428577,"55.80,64.87"
2024-05-28_13-21-30.461230,"52.99,71.45"
2024-05-28_13-21-30.489992,"74.49,68.81"
2024-05-28_13-21-30.522877,"49.65,90.47"
2024-05-28_13-21-30.556157,"49.61,77.62"
2024-05-28_13-21-30.588358,"79.50,76.93"
2024-05-28_13-21-30.621116,"68.82,74.70"
2024-05-28_13-21-30.653826,"76.68,50.19"
2024-05-28_13-21-30.686551,"79.33,64.37"
2024-05-28_13-21-30.715316,"89.21,60.02"
2024-05-28_13-21-30.748155,"57.55,66.64"
2024-05-28_13-21-30.780826,"44.31,70.22"
2024-05-28_13-21-30.813618,"58.21,78.47"
2024-05-28_13-21-30.846369,"70.22,67.72"
2024-05-28_13-21-30.879289,"59.03,72.43"
2024-05-28_13-21-30.911847,"55.84,69.97"
2024-05-28_13-21-30.940654,"62.05,85.06"
2024-05-28_13-21-30.973371,"78.19,76.95"
2024-05-28_13-21-31.006198,"58.01,49.20"
2024-05-28_13-21-31.038947,"74.05,42.18"
2024-05-28_13-21-31.071651,"85.51,73.42"
2024-05-28_13-21-31.104460,"90.41,54.32"
2024-05-28_13-21-31.137135,"71.17,74.58"
2024-05-28_13-21-31.165841,"51.53,65.36"
2024-05-28_13-21-31.198761,"50.67,71.59"
2024-05-28_13-21-31.231465,"61.18,66.68"
2024-05-28_13-21-31.264240,"72.96,77.77"
2024-05-28_13-21-31.296951,"50.25,74.73"
2024-05-28_13-21-31.329717,"52.54,80.11"
2024-05-28_13-21-31.362390,"96.08,78.73"
2024-05-28_13-21-31.391243,"77.41,70.21"
2024-05-28_13-21-31.424036,"64.76,45.61"
2024-05-28_13-21-31.456739,"78.98,42.73"
2024-05-28_13-21-31.489498,"94.47,64.59"
2024-05-28_13-21-31.522243,"69.79,58.44"
2024-05-28_13-21-31.554965,"54.50,76.86"
2024-05-28_13-21-31.587733,"55.41,66.06"
2024-05-28_13-21-31.616458,"52.46,72.03"
2024-05-28_13-21-31.649369,"78.32,68.83"
2024-05-28_13-21-31.681987,"47.81,72.22"
2024-05-28_13-21-31.714765,"50.87,90.47"
2024-05-28_13-21-31.747599,"101.17,73.07"
2024-05-28_13-21-31.780271,"61.16,74.74"
2024-05-28_13-21-31.813015,"67.25,70.99"
2024-05-28_13-21-31.841717,"91.91,44.12"
2024-05-28_13-21-31.874602,"90.09,59.82"
2024-05-28_13-21-31.907342,"59.51,65.67"
2024-05-28_13-21-31.940042,"51.40,72.18"
2024-05-28_13-21-31.972824,"59.53,65.02"
2024-05-28_13-21-32.005697,"65.00,77.19"
2024-05-28_13-21-32.038316,"56.90,73.99"
2024-05-28_13-21-32.067037,"50.54,69.75"
2024-05-28_13-21-32.099783,"75.92,78.72"
2024-05-28_13-21-32.132600,"85.44,67.69"
2024-05-28_13-21-32.165331,"59.60,63.87"
2024-05-28_13-21-32.198103,"75.70,43.56"
2024-05-28_13-21-32.230839,"92.41,70.98"
2024-05-28_13-21-32.263566,"86.68,44.87"
2024-05-28_13-21-32.292314,"62.79,76.77"
2024-05-28_13-21-32.325125,"55.45,66.71"
2024-05-28_13-21-32.357861,"52.06,71.83"
2024-05-28_13-21-32.390615,"69.95,67.04"
2024-05-28_13-21-32.423384,"58.89,71.50"
2024-05-28_13-21-32.456154,"48.89,81.28"
2024-05-28_13-21-32.488851,"77.53,85.75"
2024-05-28_13-21-32.517595,"89.65,76.58"
2024-05-28_13-21-32.550364,"67.27,70.71"
2024-05-28_13-21-32.583137,"78.78,42.08"
2024-05-28_13-21-32.615923,"92.81,61.55"
2024-05-28_13-21-32.648674,"71.30,46.81"
2024-05-28_13-21-32.681457,"61.77,72.94"
2024-05-28_13-21-32.714246,"55.82,65.15"
2024-05-28_13-21-32.746873,"55.31,75.75"
2024-05-28_13-21-32.775712,"65.38,73.41"
2024-05-28_13-21-32.808382,"61.57,69.30"
2024-05-28_13-21-32.841185,"84.13,83.02"
2024-05-28_13-21-32.873969,"89.45,80.98"
2024-05-28_13-21-32.906748,"74.18,82.04"
2024-05-28_13-21-32.939417,"72.52,62.64"
2024-05-28_13-21-32.972158,"77.68,48.08"
2024-05-28_13-21-33.000947,"97.49,56.21"
2024-05-28_13-21-33.033657,"75.17,64.39"
2024-05-28_13-21-33.066477,"44.95,66.16"
2024-05-28_13-21-33.099339,"51.34,71.64"
2024-05-28_13-21-33.132242,"60.54,66.24"
2024-05-28_13-21-33.164748,"72.43,71.58"
2024-05-28_13-21-33.197525,"54.65,79.74"
2024-05-28_13-21-33.226260,"50.05,79.89"
2024-05-28_13-21-33.259023,"87.33,80.11"
2024-05-28_13-21-33.291808,"81.56,71.24"
2024-05-28_13-21-33.324627,"72.22,63.85"
2024-05-28_13-21-33.357313,"79.35,41.80"
2024-05-28_13-21-33.390037,"92.31,61.81"
2024-05-28_13-21-33.422735,"74.58,59.87"
2024-05-28_13-21-33.451569,"49.91,66.08"
2024-05-28_13-21-33.484302,"55.37,76.29"
2024-05-28_13-21-33.517032,"51.08,71.93"
2024-05-28_13-21-33.549789,"78.10,67.22"
2024-05-28_13-21-33.582576,"58.02,73.91"
2024-05-28_13-21-33.615353,"50.36,71.06"
2024-05-28_13-21-33.648170,"83.20,78.78"
2024-05-28_13-21-33.676832,"72.84,77.94"
2024-05-28_13-21-33.709639,"69.57,50.63"
2024-05-28_13-21-33.742346,"80.83,35.99"
2024-05-28_13-21-33.775083,"105.56,63.56"
2024-05-28_13-21-33.807912,"55.35,65.82"
2024-05-28_13-21-33.840643,"49.13,72.60"
2024-05-28_13-21-33.873323,"61.13,68.25"
2024-05-28_13-21-33.902121,"66.74,71.05"
2024-05-28_13-21-33.934832,"64.05,77.49"
2024-05-28_13-21-33.967596,"50.86,70.85"
2024-05-28_13-21-34.000383,"51.35,73.95"
2024-05-28_13-21-34.033145,"86.75,70.13"
2024-05-28_13-21-34.065883,"68.92,80.15"
2024-05-28_13-21-34.098609,"77.17,62.96"
2024-05-28_13-21-34.127347,"82.94,43.76"
2024-05-28_13-21-34.160182,"89.89,58.94"
2024-05-28_13-21-34.192852,"64.10,67.00"
2024-05-28_13-21-34.225638,"52.17,76.22"
2024-05-28_13-21-34.258404,"51.30,71.35"
2024-05-28_13-21-34.291152,"70.88,66.78"
2024-05-28_13-21-34.323840,"59.26,73.29"
2024-05-28_13-21-34.352611,"53.41,69.21"
2024-05-28_13-21-34.385317,"79.45,82.21"
2024-05-28_13-21-34.418177,"91.36,73.31"
2024-05-28_13-21-34.450936,"62.49,69.25"
2024-05-28_13-21-34.483731,"74.94,36.92"
2024-05-28_13-21-34.516480,"88.09,57.82"
2024-05-28_13-21-34.549183,"91.19,51.87"
2024-05-28_13-21-34.577832,"59.33,74.72"
2024-05-28_13-21-34.610629,"56.87,65.81"
2024-05-28_13-21-34.643377,"46.22,70.87"
2024-05-28_13-21-34.676084,"58.18,76.45"
2024-05-28_13-21-34.708877,"67.06,69.33"
2024-05-28_13-21-34.741631,"48.39,74.92"
2024-05-28_13-21-34.774350,"57.32,74.02"
2024-05-28_13-21-34.803113,"88.90,76.26"
2024-05-28_13-21-34.835911,"66.10,75.24"
2024-05-28_13-21-34.868652,"66.99,68.72"
2024-05-28_13-21-34.901380,"78.82,61.49"
2024-05-28_13-21-34.934153,"82.44,48.81"
2024-05-28_13-21-34.966886,"53.02,78.58"
2024-05-28_13-21-34.999647,"49.73,71.65"
2024-05-28_13-21-35.028312,"57.89,66.53"
2024-05-28_13-21-35.061111,"52.62,71.99"
2024-05-28_13-21-35.094118,"71.20,67.89"
2024-05-28_13-21-35.126650,"47.90,81.35"
2024-05-28_13-21-35.159408,"51.69,78.86"
2024-05-28_13-21-35.192157,"82.51,64.88"
2024-05-28_13-21-35.224918,"70.12,59.02"
2024-05-28_13-21-35.253638,"81.90,50.50"
2024-05-28_13-21-35.286353,"88.34,60.88"
2024-05-28_13-21-35.319097,"82.01,63.13"
2024-05-28_13-21-35.351865,"67.44,66.85"
2024-05-28_13-21-35.384618,"44.92,70.19"
2024-05-28_13-21-35.417398,"60.22,76.76"
2024-05-28_13-21-35.450069,"67.18,69.05"
2024-05-28_13-21-35.482818,"55.65,72.95"
2024-05-28_13-21-35.511610,"54.63,70.37"
2024-05-28_13-21-35.544349,"79.19,79.32"
2024-05-28_13-21-35.577097,"80.91,78.10"
2024-05-28_13-21-35.609865,"60.16,66.21"
2024-05-28_13-21-35.642623,"77.39,40.94"
2024-05-28_13-21-35.675375,"97.66,67.47"
2024-05-28_13-21-35.708158,"69.85,61.37"
2024-05-28_13-21-35.736848,"46.76,73.20"
2024-05-28_13-21-35.769667,"57.57,65.87"
2024-05-28_13-21-35.802379,"52.49,70.82"
2024-05-28_13-21-35.835570,"68.05,67.90"
2024-05-28_13-21-35.867969,"56.12,79.88"
2024-05-28_13-21-35.900683,"79.90,73.21"
2024-05-28_13-21-35.933302,"90.58,78.47"
2024-05-28_13-21-35.962113,"88.14,75.16"
2024-05-28_13-21-35.994884,"73.51,69.54"
2024-05-28_13-21-36.027647,"73.83,43.13"
2024-05-28_13-21-36.060403,"95.03,63.14"
2024-05-28_13-21-36.093197,"75.34,48.34"
2024-05-28_13-21-36.125886,"57.66,71.56"
2024-05-28_13-21-36.158580,"59.92,76.14"
2024-05-28_13-21-36.187349,"54.85,66.98"
2024-05-28_13-21-36.220118,"62.89,72.12"
2024-05-28_13-21-36.252869,"59.69,69.73"
2024-05-28_13-21-36.285650,"49.83,85.85"
2024-05-28_13-21-36.318397,"89.26,82.18"
2024-05-28_13-21-36.351099,"60.58,72.40"
2024-05-28_13-21-36.383843,"72.56,60.86"
2024-05-28_13-21-36.412603,"82.55,49.39"
2024-05-28_13-21-36.445356,"94.16,77.13"
2024-05-28_13-21-36.478094,"78.11,60.99"
2024-05-28_13-21-36.510884,"47.73,64.89"
2024-05-28_13-21-36.543670,"52.11,71.07"
2024-05-28_13-21-36.576384,"59.52,66.72"
2024-05-28_13-21-36.609074,"72.88,77.49"
2024-05-28_13-21-36.637842,"50.00,73.91"
2024-05-28_13-21-36.670636,"52.56,69.66"
2024-05-28_13-21-36.703390,"98.34,77.97"
2024-05-28_13-21-36.736125,"76.26,72.33"
2024-05-28_13-21-36.768921,"64.69,63.06"
2024-05-28_13-21-36.801670,"80.99,42.21"
2024-05-28_13-21-36.834356,"94.16,67.33"
2024-05-28_13-21-36.863103,"73.01,57.50"
2024-05-28_13-21-36.895856,"50.14,76.91"
2024-05-28_13-21-36.928638,"57.54,68.93"
2024-05-28_13-21-36.961388,"51.25,72.03"
2024-05-28_13-21-36.994161,"74.27,69.36"
2024-05-28_13-21-37.026922,"48.56,72.91"
2024-05-28_13-21-37.059608,"68.22,84.05"
2024-05-28_13-21-37.088402,"80.16,64.97"
2024-05-28_13-21-37.121118,"72.21,61.41"
2024-05-28_13-21-37.153919,"76.46,49.72"
2024-05-28_13-21-37.186638,"89.36,68.41"
2024-05-28_13-21-37.219440,"82.33,53.66"
2024-05-28_13-21-37.252136,"61.64,65.09"
2024-05-28_13-21-37.284856,"49.83,71.49"
2024-05-28_13-21-37.313585,"60.63,65.96"
2024-05-28_13-21-37.346367,"65.25,76.90"
2024-05-28_13-21-37.379091,"55.28,73.55"
2024-05-28_13-21-37.411864,"52.20,70.45"
2024-05-28_13-21-37.444631,"58.67,92.04"
2024-05-28_13-21-37.477428,"105.05,65.69"
2024-05-28_13-21-37.510104,"57.54,79.62"
2024-05-28_13-21-37.538836,"75.45,43.01"
2024-05-28_13-21-37.571592,"87.10,47.16"
2024-05-28_13-21-37.604446,"86.07,56.17"
2024-05-28_13-21-37.637156,"59.83,77.99"
2024-05-28_13-21-37.669930,"52.84,65.48"
2024-05-28_13-21-37.702694,"52.92,71.25"
2024-05-28_13-21-37.735448,"73.30,68.08"
2024-05-28_13-21-37.764143,"59.01,71.29"
2024-05-28_13-21-37.796865,"50.23,80.30"
2024-05-28_13-21-37.829637,"77.09,83.81"
2024-05-28_13-21-37.862379,"75.91,77.59"
2024-05-28_13-21-37.895130,"68.41,68.55"
2024-05-28_13-21-37.927972,"78.74,80.61"
2024-05-28_13-21-37.960618,"70.55,76.57"
2024-05-28_13-21-37.989394,"69.69,51.92"
2024-05-28_13-21-38.022104,"62.91,73.07"
2024-05-28_13-21-38.054913,"56.66,65.10"
2024-05-28_13-21-38.087686,"56.66,75.75"
2024-05-28_13-21-38.120446,"68.83,73.02"
2024-05-28_13-21-38.153220,"66.35,67.81"
2024-05-28_13-21-38.185839,"53.58,73.24"
2024-05-28_13-21-38.214551,"68.49,72.90"
2024-05-28_13-21-38.247337,"76.61,77.42"
2024-05-28_13-21-38.280169,"73.00,77.45"
2024-05-28_13-21-38.312869,"76.18,50.01"
2024-05-28_13-21-38.345638,"84.09,57.98"
2024-05-28_13-21-38.378408,"83.54,64.60"
2024-05-28_13-21-38.411133,"45.98,66.17"
2024-05-28_13-21-38.439873,"50.48,71.52"
2024-05-28_13-21-38.472641,"59.74,65.94"
2024-05-28_13-21-38.505374,"59.84,70.46"
2024-05-28_13-21-38.538134,"56.30,79.82"
2024-05-28_13-21-38.570911,"48.61,70.14"
2024-05-28_13-21-38.603654,"68.27,76.84"
2024-05-28_13-21-38.636401,"81.67,71.01"
2024-05-28_13-21-38.669051,"69.62,78.20"
2024-05-28_13-21-38.697868,"77.35,43.05"
2024-05-28_13-21-38.730615,"88.98,62.09"
2024-05-28_13-21-38.763406,"66.85,61.00"
2024-05-28_13-21-38.796139,"66.19,65.58"
2024-05-28_13-21-38.828933,"54.84,75.77"
2024-05-28_13-21-38.861654,"51.53,72.37"
2024-05-28_13-21-38.894317,"64.73,67.69"
2024-05-28_13-21-38.923123,"55.83,72.95"
2024-05-28_13-21-38.955889,"77.28,75.91"
2024-05-28_13-21-38.988668,"80.75,65.67"
2024-05-28_13-21-39.021387,"73.70,78.20"
2024-05-28_13-21-39.054158,"66.00,50.22"
2024-05-28_13-21-39.086901,"77.73,37.35"
2024-05-28_13-21-39.119657,"91.85,78.96"
2024-05-28_13-21-39.148361,"82.73,47.96"
2024-05-28_13-21-39.181248,"66.15,73.62"
2024-05-28_13-21-39.214022,"59.44,65.65"
2024-05-28_13-21-39.246704,"48.29,70.59"
2024-05-28_13-21-39.279494,"69.58,78.24"
2024-05-28_13-21-39.312148,"53.98,70.54"
2024-05-28_13-21-39.344811,"51.04,74.41"
2024-05-28_13-21-39.373626,"88.90,69.30"
2024-05-28_13-21-39.406395,"69.99,80.68"
2024-05-28_13-21-39.439124,"73.90,62.16"
2024-05-28_13-21-39.471943,"80.24,45.25"
2024-05-28_13-21-39.504705,"88.85,59.84"
2024-05-28_13-21-39.537438,"53.17,67.19"
2024-05-28_13-21-39.570083,"68.56,77.06"
2024-05-28_13-21-39.598817,"50.85,71.48"
2024-05-28_13-21-39.631595,"56.67,65.86"
2024-05-28_13-21-39.664344,"64.46,73.24"
2024-05-28_13-21-39.697150,"58.51,70.10"
2024-05-28_13-21-39.729915,"51.35,82.92"
2024-05-28_13-21-39.762870,"82.63,70.05"
2024-05-28_13-21-39.795364,"62.68,71.48"
2024-05-28_13-21-39.824146,"72.99,58.54"
2024-05-28_13-21-39.856879,"88.19,56.14"
2024-05-28_13-21-39.889814,"66.96,54.25"
2024-05-28_13-21-39.922451,"40.68,74.13"
2024-05-28_13-21-39.955195,"57.91,67.10"
2024-05-28_13-21-39.987917,"49.62,70.36"
2024-05-28_13-21-40.020608,"73.37,76.33"
2024-05-28_13-21-40.049308,"64.51,69.61"
2024-05-28_13-21-40.082120,"49.27,74.31"
2024-05-28_13-21-40.114941,"56.93,72.61"
2024-05-28_13-21-40.147656,"87.58,77.62"
2024-05-28_13-21-40.180406,"73.97,62.79"
2024-05-28_13-21-40.213157,"71.45,45.51"
2024-05-28_13-21-40.246021,"91.04,58.45"
2024-05-28_13-21-40.274616,"73.58,49.61"
2024-05-28_13-21-40.307368,"63.37,76.99"
2024-05-28_13-21-40.340139,"49.30,71.29"
2024-05-28_13-21-40.372921,"59.79,66.09"
2024-05-28_13-21-40.405653,"67.64,72.51"
2024-05-28_13-21-40.438404,"62.70,68.28"
2024-05-28_13-21-40.471175,"49.77,87.23"
2024-05-28_13-21-40.499877,"88.98,80.22"
2024-05-28_13-21-40.532593,"78.75,72.45"
2024-05-28_13-21-40.565396,"70.86,58.94"
2024-05-28_13-21-40.598194,"83.42,49.52"
2024-05-28_13-21-40.630891,"101.15,59.23"
2024-05-28_13-21-40.663679,"74.63,61.45"
2024-05-28_13-21-40.696349,"50.66,65.79"
2024-05-28_13-21-40.725140,"44.61,70.29"
2024-05-28_13-21-40.757883,"59.32,75.62"
2024-05-28_13-21-40.790628,"73.23,68.67"
2024-05-28_13-21-40.823442,"51.29,74.25"
2024-05-28_13-21-40.856231,"55.67,79.40"
2024-05-28_13-21-40.888943,"96.28,85.94"
2024-05-28_13-21-40.921625,"75.15,77.10"
2024-05-28_13-21-40.950370,"66.41,66.85"
2024-05-28_13-21-40.983146,"55.78,61.67"
2024-05-28_13-21-41.015940,"102.38,53.95"
2024-05-28_13-21-41.048689,"59.04,64.79"
2024-05-28_13-21-41.081438,"49.05,72.03"
2024-05-28_13-21-41.114151,"56.54,65.46"
2024-05-28_13-21-41.146853,"52.94,71.76"
2024-05-28_13-21-41.175586,"75.16,67.73"
2024-05-28_13-21-41.208439,"47.46,80.63"
2024-05-28_13-21-41.241214,"51.63,79.69"
2024-05-28_13-21-41.273882,"82.90,64.74"
2024-05-28_13-21-41.306671,"70.36,58.95"
2024-05-28_13-21-41.339401,"82.38,50.10"
2024-05-28_13-21-41.372160,"87.00,64.51"
2024-05-28_13-21-41.400861,"81.05,58.01"
2024-05-28_13-21-41.433644,"66.28,66.64"
2024-05-28_13-21-41.466451,"43.81,69.89"
2024-05-28_13-21-41.499208,"59.95,76.53"
2024-05-28_13-21-41.531950,"65.82,69.13"
2024-05-28_13-21-41.564673,"54.50,72.86"
2024-05-28_13-21-41.597397,"55.06,70.37"
2024-05-28_13-21-41.630116,"78.69,82.28"
2024-05-28_13-21-41.659318,"78.20,77.11"
2024-05-28_13-21-41.691675,"62.30,65.77"
2024-05-28_13-21-41.724439,"78.39,40.57"
2024-05-28_13-21-41.757247,"100.21,64.57"
2024-05-28_13-21-41.789951,"54.05,64.43"
2024-05-28_13-21-41.822661,"48.15,72.57"
2024-05-28_13-21-41.855347,"56.58,65.68"
2024-05-28_13-21-41.884113,"51.81,70.89"
2024-05-28_13-21-41.916848,"77.98,68.48"
2024-05-28_13-21-41.949636,"52.37,80.39"
2024-05-28_13-21-41.982389,"62.42,84.99"
2024-05-28_13-21-42.015237,"106.45,67.72"
2024-05-28_13-21-42.047903,"69.37,76.71"
2024-05-28_13-21-42.080620,"77.77,67.69"
2024-05-28_13-21-42.119221,"83.07,42.13"
2024-05-28_13-21-42.153842,"92.21,66.36"
2024-05-28_13-21-42.225907,"61.84,66.34"
2024-05-28_13-21-42.227228,"43.70,70.24"
2024-05-28_13-21-42.240760,"61.61,76.05"
2024-05-28_13-21-42.273154,"68.30,67.62"
2024-05-28_13-21-42.305841,"59.60,72.22"
2024-05-28_13-21-42.334772,"56.24,70.42"
2024-05-28_13-21-42.368225,"65.07,90.26"
2024-05-28_13-21-42.400158,"83.42,78.02"
2024-05-28_13-21-42.432951,"62.26,67.21"
2024-05-28_13-21-42.465679,"76.12,39.95"
2024-05-28_13-21-42.498444,"94.90,68.26"
2024-05-28_13-21-42.531057,"72.05,61.62"
2024-05-28_13-21-42.559845,"64.06,73.05"
2024-05-28_13-21-42.592608,"54.49,64.85"
2024-05-28_13-21-42.625388,"53.72,71.27"
2024-05-28_13-21-42.658191,"67.04,68.04"
2024-05-28_13-21-42.691002,"53.78,79.08"
2024-05-28_13-21-42.723651,"50.73,86.06"
2024-05-28_13-21-42.756333,"84.45,69.84"
2024-05-28_13-21-42.785123,"69.53,76.08"
2024-05-28_13-21-42.817912,"76.85,50.52"
2024-05-28_13-21-42.850669,"81.14,41.72"
2024-05-28_13-21-42.883421,"92.12,59.78"
2024-05-28_13-21-42.916201,"62.79,66.16"
2024-05-28_13-21-42.948950,"44.29,70.75"
2024-05-28_13-21-42.981638,"57.14,77.81"
2024-05-28_13-21-43.010386,"76.98,70.56"
2024-05-28_13-21-43.043121,"54.61,73.42"
2024-05-28_13-21-43.075990,"54.18,71.79"
2024-05-28_13-21-43.108657,"78.92,79.74"
2024-05-28_13-21-43.141427,"81.69,78.04"
2024-05-28_13-21-43.174179,"61.26,48.06"
2024-05-28_13-21-43.206898,"76.25,40.71"
2024-05-28_13-21-43.235629,"97.77,69.15"
2024-05-28_13-21-43.268375,"68.45,61.24"
2024-05-28_13-21-43.301140,"49.79,73.77"
2024-05-28_13-21-43.333956,"57.26,65.18"
2024-05-28_13-21-43.366673,"52.97,72.58"
2024-05-28_13-21-43.399424,"68.78,68.01"
2024-05-28_13-21-43.432149,"51.15,79.63"
2024-05-28_13-21-43.460927,"50.97,74.14"
2024-05-28_13-21-43.493620,"69.71,77.61"
2024-05-28_13-21-43.526381,"67.81,75.35"
2024-05-28_13-21-43.559130,"78.59,49.99"
2024-05-28_13-21-43.591944,"87.73,41.41"
2024-05-28_13-21-43.624706,"92.95,53.67"
2024-05-28_13-21-43.657349,"47.36,66.17"
2024-05-28_13-21-43.686098,"44.31,70.60"
2024-05-28_13-21-43.718942,"61.69,76.54"
2024-05-28_13-21-43.751665,"62.46,68.24"
2024-05-28_13-21-43.784413,"54.47,74.26"
2024-05-28_13-21-43.817168,"55.02,82.76"
2024-05-28_13-21-43.849935,"77.31,85.04"
2024-05-28_13-21-43.882657,"75.32,76.82"
2024-05-28_13-21-43.914014,"63.43,47.66"
2024-05-28_13-21-43.944219,"78.12,40.12"
2024-05-28_13-21-43.976918,"93.65,65.87"
2024-05-28_13-21-44.009640,"42.13,79.22"
2024-05-28_13-21-44.042425,"50.18,72.14"
2024-05-28_13-21-44.075186,"57.78,66.60"
2024-05-28_13-21-44.107886,"53.73,72.38"
2024-05-28_13-21-44.140620,"70.35,67.94"
2024-05-28_13-21-44.169402,"48.63,79.38"
2024-05-28_13-21-44.202169,"90.56,79.14"
2024-05-28_13-21-44.234924,"78.89,72.61"
2024-05-28_13-21-44.267698,"69.79,59.29"
2024-05-28_13-21-44.300450,"85.11,49.84"
2024-05-28_13-21-44.333181,"90.80,59.58"
2024-05-28_13-21-44.365888,"77.26,61.28"
2024-05-28_13-21-44.394638,"55.86,66.75"
2024-05-28_13-21-44.427423,"44.66,69.69"
2024-05-28_13-21-44.460160,"59.81,76.14"
2024-05-28_13-21-44.493092,"72.86,69.57"
2024-05-28_13-21-44.525742,"48.78,74.18"
2024-05-28_13-21-44.558455,"56.78,71.90"
2024-05-28_13-21-44.591158,"87.18,83.59"
2024-05-28_13-21-44.619922,"72.50,61.87"
2024-05-28_13-21-44.652713,"70.54,45.17"
2024-05-28_13-21-44.685441,"91.32,60.04"
2024-05-28_13-21-44.718199,"74.82,49.20"
2024-05-28_13-21-44.750940,"63.23,76.55"
2024-05-28_13-21-44.783686,"51.85,72.22"
2024-05-28_13-21-44.816389,"57.56,66.28"
2024-05-28_13-21-44.845154,"65.17,73.43"
2024-05-28_13-21-44.877921,"56.59,68.84"
2024-05-28_13-21-44.910701,"50.53,81.51"
2024-05-28_13-21-44.943423,"78.38,77.86"
2024-05-28_13-21-44.976253,"62.49,68.85"
2024-05-28_13-21-45.008963,"66.22,73.25"
2024-05-28_13-21-45.041633,"70.43,77.72"
2024-05-28_13-21-45.070388,"89.34,58.78"
2024-05-28_13-21-45.103150,"55.78,73.73"
2024-05-28_13-21-45.135928,"57.24,67.03"
2024-05-28_13-21-45.168680,"47.32,70.13"
2024-05-28_13-21-45.201449,"71.12,76.99"
2024-05-28_13-21-45.234194,"62.94,71.23"
2024-05-28_13-21-45.266891,"49.86,73.96"
2024-05-28_13-21-45.295644,"82.12,84.21"
2024-05-28_13-21-45.328405,"71.64,81.05"
2024-05-28_13-21-45.361213,"71.68,62.79"
2024-05-28_13-21-45.393932,"74.34,45.59"
2024-05-28_13-21-45.426781,"87.21,74.83"
2024-05-28_13-21-45.459422,"67.60,50.56"
2024-05-28_13-21-45.492174,"68.23,76.67"
2024-05-28_13-21-45.520876,"51.49,72.38"
2024-05-28_13-21-45.553680,"57.80,66.74"
2024-05-28_13-21-45.586493,"64.07,72.10"
2024-05-28_13-21-45.619209,"56.94,70.05"
2024-05-28_13-21-45.651963,"76.60,82.55"
2024-05-28_13-21-45.684751,"76.08,79.02"
2024-05-28_13-21-45.717398,"62.67,68.77"
2024-05-28_13-21-45.746143,"75.54,37.37"
2024-05-28_13-21-45.778916,"88.11,57.90"
2024-05-28_13-21-45.811785,"81.31,52.21"
2024-05-28_13-21-45.844550,"62.68,74.18"
2024-05-28_13-21-45.877217,"60.36,66.67"
2024-05-28_13-21-45.909990,"48.10,69.71"
2024-05-28_13-21-45.942764,"69.35,77.86"
2024-05-28_13-21-45.971424,"56.22,70.97"
2024-05-28_13-21-46.007125,"50.08,84.31"
2024-05-28_13-21-46.037743,"91.10,80.29"
2024-05-28_13-21-46.071317,"64.26,80.97"
2024-05-28_13-21-46.102517,"74.73,61.69"
2024-05-28_13-21-46.135415,"81.96,44.97"
2024-05-28_13-21-46.168064,"92.92,59.16"
2024-05-28_13-21-46.196816,"61.52,65.88"
2024-05-28_13-21-46.229588,"54.40,76.67"
2024-05-28_13-21-46.262248,"53.48,72.03"
2024-05-28_13-21-46.295027,"67.48,66.69"
2024-05-28_13-21-46.327739,"58.45,72.74"
2024-05-28_13-21-46.360490,"49.72,77.25"
2024-05-28_13-21-46.393230,"97.65,76.00"
2024-05-28_13-21-46.425884,"73.02,77.21"
2024-05-28_13-21-46.454689,"69.08,68.38"
2024-05-28_13-21-46.487421,"80.28,35.57"
2024-05-28_13-21-46.520156,"97.26,64.93"
2024-05-28_13-21-46.552940,"63.16,65.61"
2024-05-28_13-21-46.585721,"49.66,71.55"
2024-05-28_13-21-46.618470,"59.62,65.61"
2024-05-28_13-21-46.651139,"66.04,70.22"
2024-05-28_13-21-46.679943,"64.87,79.38"
2024-05-28_13-21-46.712679,"50.09,70.27"
2024-05-28_13-21-46.745440,"68.59,78.12"
2024-05-28_13-21-46.778198,"84.22,67.85"
2024-05-28_13-21-46.810965,"68.34,78.66"
2024-05-28_13-21-46.843697,"76.77,43.36"
2024-05-28_13-21-46.876388,"89.11,65.71"
2024-05-28_13-21-46.905158,"69.96,75.73"
2024-05-28_13-21-46.937941,"49.48,65.85"
2024-05-28_13-21-46.970732,"55.18,75.83"
2024-05-28_13-21-47.003476,"50.55,72.73"
2024-05-28_13-21-47.036280,"77.61,67.13"
2024-05-28_13-21-47.068944,"77.35,76.73"
2024-05-28_13-21-47.101680,"72.10,59.60"
2024-05-28_13-21-47.130443,"79.23,79.37"
2024-05-28_13-21-47.163199,"71.36,62.87"
2024-05-28_13-21-47.195963,"70.56,49.15"
2024-05-28_13-21-47.228722,"81.36,35.60"
2024-05-28_13-21-47.261473,"91.32,60.45"
2024-05-28_13-21-47.294216,"43.38,65.71"
2024-05-28_13-21-47.326828,"51.96,72.08"
2024-05-28_13-21-47.355653,"61.12,66.09"
2024-05-28_13-21-47.388421,"73.57,72.88"
2024-05-28_13-21-47.421154,"58.27,79.98"
2024-05-28_13-21-47.454017,"48.68,71.97"
2024-05-28_13-21-47.486718,"80.96,85.10"
2024-05-28_13-21-47.519481,"101.34,72.89"
2024-05-28_13-21-47.552092,"70.08,46.85"
2024-05-28_13-21-47.580928,"76.82,41.63"
2024-05-28_13-21-47.613697,"92.54,61.80"
2024-05-28_13-21-47.646462,"72.01,61.25"
2024-05-28_13-21-47.679215,"53.52,66.34"
2024-05-28_13-21-47.711998,"56.45,77.24"
2024-05-28_13-21-47.744746,"66.73,73.82"
2024-05-28_13-21-47.777448,"65.67,68.38"
2024-05-28_13-21-47.806172,"52.75,76.58"
2024-05-28_13-21-47.838886,"80.13,71.05"
2024-05-28_13-21-47.871707,"96.38,80.94"
2024-05-28_13-21-47.904502,"68.36,45.50"
2024-05-28_13-21-47.937285,"77.76,49.02"
2024-05-28_13-21-47.970070,"94.58,60.69"
2024-05-28_13-21-48.002689,"62.84,65.64"
2024-05-28_13-21-48.031466,"53.29,67.04"
2024-05-28_13-21-48.064264,"52.49,72.16"
2024-05-28_13-21-48.096991,"73.77,69.40"
2024-05-28_13-21-48.129717,"87.43,74.90"
2024-05-28_13-21-48.162495,"49.14,80.36"
2024-05-28_13-21-48.195203,"51.19,80.42"
2024-05-28_13-21-48.227923,"94.70,81.14"
2024-05-28_13-21-48.256661,"65.24,71.63"
2024-05-28_13-21-48.289444,"75.44,43.89"
2024-05-28_13-21-48.322198,"93.96,60.00"
2024-05-28_13-21-48.354941,"68.23,46.47"
2024-05-28_13-21-48.387724,"59.76,73.57"
2024-05-28_13-21-48.420551,"60.33,66.13"
2024-05-28_13-21-48.453202,"56.40,76.03"
2024-05-28_13-21-48.482016,"64.75,72.49"
2024-05-28_13-21-48.514831,"63.58,69.60"
2024-05-28_13-21-48.547484,"54.47,79.16"
2024-05-28_13-21-48.580256,"93.41,62.56"
2024-05-28_13-21-48.612983,"56.45,80.81"
2024-05-28_13-21-48.645735,"74.20,43.10"
2024-05-28_13-21-48.678506,"83.90,48.00"
2024-05-28_13-21-48.707176,"96.76,54.86"
2024-05-28_13-21-48.739961,"58.73,78.15"
2024-05-28_13-21-48.772707,"52.86,65.52"
2024-05-28_13-21-48.805500,"53.86,71.23"
2024-05-28_13-21-48.838237,"71.90,67.77"
2024-05-28_13-21-48.870989,"56.04,72.64"
2024-05-28_13-21-48.903720,"49.82,79.27"
2024-05-28_13-21-48.936472,"82.95,70.86"
2024-05-28_13-21-48.965205,"73.64,76.98"
2024-05-28_13-21-48.998006,"70.10,51.24"
2024-05-28_13-21-49.030722,"84.59,43.02"
2024-05-28_13-21-49.063462,"89.76,61.60"
2024-05-28_13-21-49.096258,"44.15,64.98"
2024-05-28_13-21-49.128951,"45.40,73.73"
2024-05-28_13-21-49.161645,"58.10,66.22"
2024-05-28_13-21-49.190456,"69.87,76.31"
2024-05-28_13-21-49.223218,"60.21,72.77"
2024-05-28_13-21-49.255969,"52.19,70.99"
2024-05-28_13-21-49.288723,"58.70,80.57"
2024-05-28_13-21-49.321512,"90.09,65.24"
2024-05-28_13-21-49.354254,"58.62,63.75"
2024-05-28_13-21-49.386928,"77.17,42.71"
2024-05-28_13-21-49.415754,"93.16,64.64"
2024-05-28_13-21-49.457476,"65.72,58.25"
2024-05-28_13-21-49.484910,"49.36,76.64"
2024-05-28_13-21-49.514416,"55.49,66.27"
2024-05-28_13-21-49.547363,"51.98,72.46"
2024-05-28_13-21-49.579490,"78.83,68.40"
2024-05-28_13-21-49.612186,"47.77,73.75"
2024-05-28_13-21-49.640978,"68.06,81.76"
2024-05-28_13-21-49.673698,"76.23,70.12"
2024-05-28_13-21-49.706530,"71.84,76.48"
2024-05-28_13-21-49.739288,"76.41,48.98"
2024-05-28_13-21-49.772087,"102.98,58.87"
2024-05-28_13-21-49.805264,"85.70,61.41"
2024-05-28_13-21-49.837406,"61.53,65.13"
2024-05-28_13-21-49.866270,"51.00,71.69"
2024-05-28_13-21-49.899016,"61.09,66.33"
2024-05-28_13-21-49.931725,"61.99,77.10"
2024-05-28_13-21-49.964543,"51.82,74.37"
2024-05-28_13-21-49.997275,"69.35,74.36"
2024-05-28_13-21-50.029979,"89.27,78.19"
2024-05-28_13-21-50.062687,"74.04,69.48"
2024-05-28_13-21-50.091448,"66.82,63.29"
2024-05-28_13-21-50.124228,"82.71,78.66"
2024-05-28_13-21-50.157020,"53.92,68.85"
2024-05-28_13-21-50.189749,"56.71,71.36"
2024-05-28_13-21-50.222507,"57.63,75.24"
2024-05-28_13-21-50.255278,"57.04,68.13"
2024-05-28_13-21-50.287943,"65.84,72.53"
2024-05-28_13-21-50.316699,"62.34,69.30"
2024-05-28_13-21-50.349459,"66.79,81.19"
2024-05-28_13-21-50.382218,"97.76,80.99"
2024-05-28_13-21-50.414978,"57.55,67.18"
2024-05-28_13-21-50.447766,"74.07,40.58"
2024-05-28_13-21-50.480487,"94.07,69.87"
2024-05-28_13-21-50.513172,"69.33,59.51"
2024-05-28_13-21-50.541926,"61.86,73.83"
2024-05-28_13-21-50.574757,"58.40,66.37"
2024-05-28_13-21-50.607468,"52.63,72.19"
2024-05-28_13-21-50.640249,"68.11,67.51"
2024-05-28_13-21-50.672960,"51.57,81.14"
2024-05-28_13-21-50.705840,"49.89,74.52"
2024-05-28_13-21-50.738463,"82.74,69.76"
2024-05-28_13-21-50.767205,"68.93,75.31"
2024-05-28_13-21-50.800014,"77.96,50.72"
2024-05-28_13-21-50.832723,"81.41,70.09"
2024-05-28_13-21-50.865492,"93.12,54.19"
2024-05-28_13-21-50.898269,"64.82,67.30"
2024-05-28_13-21-50.931020,"45.00,70.15"
2024-05-28_13-21-50.963728,"59.56,75.54"
2024-05-28_13-21-50.992447,"68.69,69.32"
2024-05-28_13-21-51.025214,"55.63,73.09"
2024-05-28_13-21-51.057978,"54.44,76.43"
2024-05-28_13-21-51.090756,"84.09,75.84"
2024-05-28_13-21-51.123510,"75.55,76.97"
2024-05-28_13-21-51.156308,"63.53,67.71"
2024-05-28_13-21-51.188943,"56.59,62.73"
2024-05-28_13-21-51.221696,"101.55,66.46"
2024-05-28_13-21-51.250471,"60.06,64.11"
2024-05-28_13-21-51.283280,"49.44,72.08"
2024-05-28_13-21-51.316013,"56.45,65.23"
2024-05-28_13-21-51.348749,"51.78,71.09"
2024-05-28_13-21-51.381499,"73.99,67.80"
2024-05-28_13-21-51.414270,"46.21,87.75"
2024-05-28_13-21-51.442975,"89.17,68.59"
2024-05-28_13-21-51.475764,"63.51,71.92"
2024-05-28_13-21-51.508455,"69.41,58.65"
2024-05-28_13-21-51.541301,"82.34,48.48"
2024-05-28_13-21-51.574014,"87.79,66.47"
2024-05-28_13-21-51.606792,"77.25,61.37"
2024-05-28_13-21-51.639536,"51.76,66.18"
2024-05-28_13-21-51.672245,"46.79,69.84"
2024-05-28_13-21-51.700973,"59.72,77.57"
2024-05-28_13-21-51.733760,"73.39,69.33"
2024-05-28_13-21-51.766496,"48.18,73.48"
2024-05-28_13-21-51.799289,"80.89,68.70"
2024-05-28_13-21-51.832073,"72.29,81.54"
2024-05-28_13-21-51.864759,"72.48,77.16"
2024-05-28_13-21-51.897456,"71.22,45.65"
2024-05-28_13-21-51.926275,"87.90,73.80"
2024-05-28_13-21-51.959023,"66.05,50.58"
2024-05-28_13-21-51.995095,"66.25,76.65"
2024-05-28_13-21-52.025577,"50.48,71.91"
2024-05-28_13-21-52.057360,"58.48,66.74"
2024-05-28_13-21-52.090023,"63.70,72.11"
2024-05-28_13-21-52.122760,"55.15,70.00"
2024-05-28_13-21-52.151610,"75.53,87.83"
2024-05-28_13-21-52.184284,"63.00,77.50"
2024-05-28_13-21-52.217029,"66.79,68.81"
2024-05-28_13-21-52.249815,"78.05,37.51"
2024-05-28_13-21-52.282806,"102.73,62.85"
2024-05-28_13-21-52.315306,"73.35,65.53"
2024-05-28_13-21-52.348032,"67.38,72.60"
2024-05-28_13-21-52.376737,"59.92,65.66"
2024-05-28_13-21-52.409497,"47.51,70.56"
2024-05-28_13-21-52.442240,"66.19,78.11"
2024-05-28_13-21-52.474994,"51.31,82.49"
2024-05-28_13-21-52.507784,"68.27,78.58"
2024-05-28_13-21-52.540542,"82.59,74.48"
2024-05-28_13-21-52.573206,"68.24,78.27"
2024-05-28_13-21-52.601981,"77.05,42.36"
2024-05-28_13-21-52.634759,"100.94,62.12"
2024-05-28_13-21-52.667675,"84.97,59.88"
2024-05-28_13-21-52.700392,"64.62,65.85"
2024-05-28_13-21-52.733067,"55.65,76.59"
2024-05-28_13-21-52.765808,"51.45,71.51"
2024-05-28_13-21-52.798564,"75.08,67.15"
2024-05-28_13-21-52.827236,"54.96,74.65"
2024-05-28_13-21-52.860017,"91.13,86.44"
2024-05-28_13-21-52.892770,"74.69,82.33"
2024-05-28_13-21-52.925537,"72.90,77.43"
2024-05-28_13-21-52.958283,"74.63,50.20"
2024-05-28_13-21-52.991062,"94.42,62.75"
2024-05-28_13-21-53.023758,"66.02,64.66"
2024-05-28_13-21-53.052479,"52.29,66.74"
2024-05-28_13-21-53.085264,"51.03,70.83"
2024-05-28_13-21-53.118044,"60.91,66.50"
2024-05-28_13-21-53.150829,"70.04,71.55"
2024-05-28_13-21-53.183526,"74.18,83.31"
2024-05-28_13-21-53.216313,"69.04,82.28"
2024-05-28_13-21-53.248993,"63.89,80.01"
2024-05-28_13-21-53.277732,"67.40,69.33"
2024-05-28_13-21-53.310546,"74.52,44.31"
2024-05-28_13-21-53.343312,"92.36,63.90"
2024-05-28_13-21-53.376142,"84.61,47.27"
2024-05-28_13-21-53.408818,"59.62,73.18"
2024-05-28_13-21-53.441564,"58.40,65.66"
2024-05-28_13-21-53.474256,"55.38,76.29"
2024-05-28_13-21-53.503023,"65.80,71.95"
2024-05-28_13-21-53.535762,"60.73,68.75"
2024-05-28_13-21-53.568472,"53.40,82.86"
2024-05-28_13-21-53.601273,"91.56,65.50"
2024-05-28_13-21-53.634086,"55.64,80.43"
2024-05-28_13-21-53.666772,"70.33,43.30"
2024-05-28_13-21-53.699490,"77.38,48.42"
2024-05-28_13-21-53.728263,"93.64,59.26"
2024-05-28_13-21-53.761019,"51.28,64.82"
2024-05-28_13-21-53.793777,"49.71,65.59"
2024-05-28_13-21-53.826543,"52.36,71.04"
2024-05-28_13-21-53.859301,"58.08,66.18"
2024-05-28_13-21-53.892089,"65.74,72.32"
2024-05-28_13-21-53.924756,"50.57,79.84"
2024-05-28_13-21-53.957504,"76.07,72.42"
2024-05-28_13-21-53.986263,"76.83,77.89"
2024-05-28_13-21-54.019000,"67.29,68.17"
2024-05-28_13-21-54.051779,"78.68,42.74"
2024-05-28_13-21-54.084531,"87.76,80.04"
2024-05-28_13-21-54.117361,"48.75,67.09"
2024-05-28_13-21-54.150063,"63.50,72.19"
2024-05-28_13-21-54.182722,"59.12,66.28"
2024-05-28_13-21-54.211493,"68.61,77.09"
2024-05-28_13-21-54.244234,"56.35,74.66"
2024-05-28_13-21-54.277084,"54.04,70.21"
2024-05-28_13-21-54.309823,"59.33,77.71"
2024-05-28_13-21-54.342539,"86.41,66.66"
2024-05-28_13-21-54.375268,"58.70,63.70"
2024-05-28_13-21-54.408029,"78.20,44.53"
2024-05-28_13-21-54.436741,"101.21,62.76"
2024-05-28_13-21-54.469514,"81.50,57.53"
2024-05-28_13-21-54.502286,"49.30,77.01"
2024-05-28_13-21-54.535095,"55.25,65.97"
2024-05-28_13-21-54.567794,"52.66,71.57"
2024-05-28_13-21-54.600514,"80.06,68.58"
2024-05-28_13-21-54.633232,"50.47,71.66"
2024-05-28_13-21-54.662054,"50.44,82.83"
2024-05-28_13-21-54.694759,"77.71,71.48"
2024-05-28_13-21-54.727515,"72.24,75.64"
2024-05-28_13-21-54.760330,"74.21,49.76"
2024-05-28_13-21-54.793064,"92.58,59.64"
2024-05-28_13-21-54.825791,"72.36,61.39"
2024-05-28_13-21-54.858502,"45.92,64.88"
2024-05-28_13-21-54.887330,"52.09,71.59"
2024-05-28_13-21-54.920086,"63.35,66.62"
2024-05-28_13-21-54.952808,"75.68,77.50"
2024-05-28_13-21-54.985541,"52.27,75.09"
2024-05-28_13-21-55.018310,"85.18,76.91"
2024-05-28_13-21-55.051064,"69.64,75.72"
2024-05-28_13-21-55.083751,"72.82,69.20"
2024-05-28_13-21-55.112517,"65.17,44.67"
2024-05-28_13-21-55.145317,"79.75,64.18"
2024-05-28_13-21-55.178122,"92.41,60.62"
2024-05-28_13-21-55.210845,"44.96,58.27"
2024-05-28_13-21-55.243576,"53.45,78.40"
2024-05-28_13-21-55.276354,"56.87,66.23"
2024-05-28_13-21-55.309041,"52.54,72.07"
2024-05-28_13-21-55.337771,"70.71,68.01"
2024-05-28_13-21-55.370518,"48.18,81.40"
2024-05-28_13-21-55.406023,"85.18,72.25"
2024-05-28_13-21-55.437325,"58.07,69.71"
2024-05-28_13-21-55.469108,"72.45,76.25"
2024-05-28_13-21-55.501573,"84.43,52.89"
2024-05-28_13-21-55.534247,"89.57,75.71"
2024-05-28_13-21-55.563649,"67.79,60.55"
2024-05-28_13-21-55.596110,"52.91,65.56"
2024-05-28_13-21-55.628589,"51.32,71.14"
2024-05-28_13-21-55.661360,"73.73,65.99"
2024-05-28_13-21-55.694139,"62.19,78.49"
2024-05-28_13-21-55.726865,"48.81,75.40"
2024-05-28_13-21-55.759841,"73.22,70.91"
2024-05-28_13-21-55.788386,"71.12,75.32"
2024-05-28_13-21-55.821114,"75.61,68.59"
2024-05-28_13-21-55.853840,"72.48,41.71"
2024-05-28_13-21-55.886628,"88.08,63.12"
2024-05-28_13-21-55.919374,"69.46,67.24"
2024-05-28_13-21-55.952105,"41.68,70.89"
2024-05-28_13-21-55.984800,"57.78,75.10"
2024-05-28_13-21-56.013475,"70.21,67.40"
2024-05-28_13-21-56.046295,"59.85,73.74"
2024-05-28_13-21-56.079087,"59.35,70.70"
2024-05-28_13-21-56.111814,"62.66,83.34"
2024-05-28_13-21-56.144598,"78.40,76.81"
2024-05-28_13-21-56.177333,"59.39,66.06"
2024-05-28_13-21-56.214088,"76.16,40.40"
2024-05-28_13-21-56.238970,"96.87,63.31"
2024-05-28_13-21-56.271608,"39.33,64.26"
2024-05-28_13-21-56.304353,"49.56,73.59"
2024-05-28_13-21-56.337110,"57.47,65.96"
2024-05-28_13-21-56.369810,"53.13,71.70"
2024-05-28_13-21-56.402657,"77.87,67.31"
2024-05-28_13-21-56.435392,"48.28,80.35"
2024-05-28_13-21-56.468031,"51.37,77.64"
2024-05-28_13-21-56.496767,"78.94,74.55"
2024-05-28_13-21-56.529753,"69.40,58.54"
2024-05-28_13-21-56.562349,"81.87,50.31"
2024-05-28_13-21-56.595071,"98.58,61.03"
2024-05-28_13-21-56.628033,"76.82,61.06"
2024-05-28_13-21-56.660589,"50.12,66.83"
2024-05-28_13-21-56.693261,"45.55,69.44"
2024-05-28_13-21-56.722099,"59.42,76.81"
2024-05-28_13-21-56.754823,"76.68,69.29"
2024-05-28_13-21-56.787587,"50.21,73.01"
2024-05-28_13-21-56.820356,"55.50,83.44"
2024-05-28_13-21-56.853106,"75.31,84.89"
2024-05-28_13-21-56.885870,"73.06,76.50"
2024-05-28_13-21-56.918528,"67.16,45.92"
2024-05-28_13-21-56.947300,"86.72,76.03"
2024-05-28_13-21-56.980034,"65.24,50.60"
2024-05-28_13-21-57.012880,"59.13,76.49"
2024-05-28_13-21-57.045547,"50.15,71.29"
2024-05-28_13-21-57.078353,"57.74,66.51"
2024-05-28_13-21-57.111101,"66.72,71.73"
2024-05-28_13-21-57.143808,"60.09,69.50"
2024-05-28_13-21-57.172583,"77.16,81.15"
2024-05-28_13-21-57.205316,"77.44,78.56"
2024-05-28_13-21-57.238096,"63.31,68.44"
2024-05-28_13-21-57.270857,"60.89,72.75"
2024-05-28_13-21-57.303618,"71.60,81.56"
2024-05-28_13-21-57.336354,"78.75,54.63"
2024-05-28_13-21-57.369028,"61.26,73.14"
2024-05-28_13-21-57.397836,"57.40,65.70"
2024-05-28_13-21-57.430573,"47.21,69.44"
2024-05-28_13-21-57.463353,"71.31,77.76"
2024-05-28_13-21-57.496053,"54.67,70.00"
2024-05-28_13-21-57.528918,"50.50,84.63"
2024-05-28_13-21-57.561661,"86.12,77.98"
2024-05-28_13-21-57.594381,"70.09,78.23"
2024-05-28_13-21-57.623052,"75.87,62.32"
2024-05-28_13-21-57.655825,"87.88,44.80"
2024-05-28_13-21-57.688591,"90.40,58.81"
2024-05-28_13-21-57.721321,"61.26,65.72"
2024-05-28_13-21-57.754225,"53.62,76.61"
2024-05-28_13-21-57.786866,"50.63,70.87"
2024-05-28_13-21-57.819619,"68.01,66.09"
2024-05-28_13-21-57.848323,"61.91,72.14"
2024-05-28_13-21-57.881080,"50.31,70.02"
2024-05-28_13-21-57.913846,"73.41,79.87"
2024-05-28_13-21-57.946598,"75.42,78.13"
2024-05-28_13-21-57.979364,"65.63,68.82"
2024-05-28_13-21-58.012126,"78.75,35.78"
2024-05-28_13-21-58.044816,"92.79,64.20"
2024-05-28_13-21-58.073564,"69.45,48.87"
2024-05-28_13-21-58.106301,"47.36,72.75"
2024-05-28_13-21-58.139080,"55.87,65.38"
2024-05-28_13-21-58.181046,"47.15,69.27"
2024-05-28_13-21-58.205562,"65.93,77.77"
2024-05-28_13-21-58.241316,"53.95,70.70"
2024-05-28_13-21-58.270586,"49.92,83.79"
2024-05-28_13-21-58.298895,"88.78,71.17"
2024-05-28_13-21-58.331640,"68.61,79.36"
2024-05-28_13-21-58.364576,"78.23,60.41"
2024-05-28_13-21-58.397104,"87.89,43.64"
2024-05-28_13-21-58.429928,"83.25,57.54"
2024-05-28_13-21-58.462893,"64.53,65.65"
2024-05-28_13-21-58.495276,"50.33,75.81"
2024-05-28_13-21-58.524034,"51.29,71.23"
2024-05-28_13-21-58.557097,"63.21,66.88"
2024-05-28_13-21-58.589599,"56.52,72.22"
2024-05-28_13-21-58.622369,"49.21,77.77"
2024-05-28_13-21-58.655100,"88.38,86.82"
2024-05-28_13-21-58.687884,"75.13,76.39"
2024-05-28_13-21-58.720605,"70.23,68.09"
2024-05-28_13-21-58.749310,"84.00,35.58"
2024-05-28_13-21-58.782152,"97.02,70.90"
2024-05-28_13-21-58.814856,"65.74,64.93"
2024-05-28_13-21-58.847636,"49.13,71.37"
2024-05-28_13-21-58.880407,"58.59,65.74"
2024-05-28_13-21-58.913372,"73.64,69.91"
2024-05-28_13-21-58.945842,"53.60,78.76"
2024-05-28_13-21-58.978557,"49.03,70.85"
2024-05-28_13-21-59.007325,"51.33,81.55"
2024-05-28_13-21-59.040095,"86.27,64.28"
2024-05-28_13-21-59.072914,"73.37,76.98"
2024-05-28_13-21-59.105643,"80.59,42.28"
2024-05-28_13-21-59.138386,"93.52,43.37"
2024-05-28_13-21-59.171136,"83.88,62.99"
2024-05-28_13-21-59.203790,"48.09,65.93"
2024-05-28_13-21-59.232571,"53.08,76.11"
2024-05-28_13-21-59.265350,"66.05,71.34"
2024-05-28_13-21-59.298137,"62.42,68.38"
2024-05-28_13-21-59.330891,"72.63,79.67"
2024-05-28_13-21-59.363699,"50.69,72.60"
2024-05-28_13-21-59.396379,"80.74,86.29"
2024-05-28_13-21-59.429091,"76.90,76.57"
2024-05-28_13-21-59.457928,"79.89,66.37"
2024-05-28_13-21-59.490604,"89.90,34.70"
2024-05-28_13-21-59.523369,"82.98,69.07"
2024-05-28_13-21-59.556171,"44.39,64.46"
2024-05-28_13-21-59.588900,"49.35,70.51"
2024-05-28_13-21-59.621673,"58.87,67.47"
2024-05-28_13-21-59.654336,"59.52,69.91"
2024-05-28_13-21-59.683130,"48.16,78.65"
2024-05-28_13-21-59.715865,"52.55,77.00"
2024-05-28_13-21-59.748691,"72.35,79.58"
2024-05-28_13-21-59.781573,"68.69,70.63"
2024-05-28_13-21-59.814314,"82.62,77.26"
2024-05-28_13-21-59.846912,"84.72,41.25"
2024-05-28_13-21-59.879605,"88.17,60.07"
2024-05-28_13-21-59.908333,"64.85,59.39"
2024-05-28_13-21-59.941088,"56.09,65.64"
2024-05-28_13-21-59.973903,"50.77,74.87"
2024-05-28_13-22-00.006694,"62.57,71.33"
2024-05-28_13-22-00.039443,"54.06,68.69"
2024-05-28_13-22-00.072125,"55.78,76.10"
2024-05-28_13-22-00.104866,"87.51,78.08"
2024-05-28_13-22-00.133641,"58.07,81.06"
2024-05-28_13-22-00.166354,"78.71,76.18"
2024-05-28_13-22-00.199137,"86.89,47.22"
2024-05-28_13-22-00.231893,"80.80,45.32"
2024-05-28_13-22-00.264630,"66.41,62.87"
2024-05-28_13-22-00.297465,"50.30,65.08"
2024-05-28_13-22-00.330080,"50.05,69.58"
2024-05-28_13-22-00.358924,"76.33,67.92"
2024-05-28_13-22-00.391606,"62.11,73.05"
2024-05-28_13-22-00.424396,"50.53,79.89"
2024-05-28_13-22-00.457149,"73.55,82.30"
2024-05-28_13-22-00.489946,"77.09,74.63"
2024-05-28_13-22-00.522665,"77.24,66.60"
2024-05-28_13-22-00.555346,"91.16,60.20"
2024-05-28_13-22-00.584091,"96.00,53.19"
2024-05-28_13-22-00.616843,"49.27,47.26"
2024-05-28_13-22-00.649611,"47.96,71.11"
2024-05-28_13-22-00.682372,"56.08,65.49"
2024-05-28_13-22-00.715164,"70.40,76.62"
2024-05-28_13-22-00.747893,"49.34,72.38"
2024-05-28_13-22-00.780574,"52.59,69.83"
2024-05-28_13-22-00.809371,"90.01,75.41"
2024-05-28_13-22-00.842159,"80.96,65.49"
2024-05-28_13-22-00.874885,"69.31,77.29"
2024-05-28_13-22-00.907619,"83.53,61.93"
2024-05-28_13-22-00.940415,"89.42,67.03"
2024-05-28_13-22-00.973209,"69.53,56.86"
2024-05-28_13-22-01.005858,"53.04,75.44"
2024-05-28_13-22-01.034632,"52.67,65.81"
2024-05-28_13-22-01.067392,"64.66,70.12"
2024-05-28_13-22-01.100166,"62.39,69.32"
2024-05-28_13-22-01.132906,"50.69,72.57"
2024-05-28_13-22-01.165777,"79.01,81.56"
2024-05-28_13-22-01.198437,"64.52,63.11"
