timestamp,EMG
2024-05-28_13-25-29.149045,"58.00,65.03"
2024-05-28_13-25-29.181860,"54.98,72.61"
2024-05-28_13-25-29.210872,"68.57,67.93"
2024-05-28_13-25-29.243455,"49.58,80.18"
2024-05-28_13-25-29.276055,"69.12,81.97"
2024-05-28_13-25-29.308774,"82.00,67.38"
2024-05-28_13-25-29.341562,"73.24,59.31"
2024-05-28_13-25-29.374286,"88.36,47.79"
2024-05-28_13-25-29.406954,"78.00,65.11"
2024-05-28_13-25-29.435750,"76.66,61.36"
2024-05-28_13-25-29.468530,"57.71,64.85"
2024-05-28_13-25-29.501294,"47.58,70.22"
2024-05-28_13-25-29.534096,"62.69,76.51"
2024-05-28_13-25-29.566820,"72.63,69.11"
2024-05-28_13-25-29.599619,"50.83,75.66"
2024-05-28_13-25-29.632286,"90.73,75.61"
2024-05-28_13-25-29.661009,"69.38,80.79"
2024-05-28_13-25-29.693790,"77.67,41.93"
2024-05-28_13-25-29.726529,"92.49,44.29"
2024-05-28_13-25-29.759377,"72.85,48.90"
2024-05-28_13-25-29.792113,"64.48,48.32"
2024-05-28_13-25-29.824812,"54.72,76.24"
2024-05-28_13-25-29.857565,"53.13,71.18"
2024-05-28_13-25-29.886351,"70.92,68.43"
2024-05-28_13-25-29.919062,"75.93,64.98"
2024-05-28_13-25-29.951914,"68.95,68.88"
2024-05-28_13-25-29.984669,"65.94,85.46"
2024-05-28_13-25-30.017355,"73.27,62.24"
2024-05-28_13-25-30.050139,"79.14,48.35"
2024-05-28_13-25-30.082850,"81.47,34.77"
2024-05-28_13-25-30.111689,"74.93,54.32"
2024-05-28_13-25-30.144510,"51.35,64.38"
2024-05-28_13-25-30.177166,"53.09,70.86"
2024-05-28_13-25-30.209861,"65.85,67.02"
2024-05-28_13-25-30.242627,"69.59,70.71"
2024-05-28_13-25-30.275405,"53.30,79.69"
2024-05-28_13-25-30.308101,"52.65,74.54"
2024-05-28_13-25-30.336799,"88.84,78.63"
2024-05-28_13-25-30.369594,"72.46,68.68"
2024-05-28_13-25-30.402368,"92.19,42.14"
2024-05-28_13-25-30.435173,"87.53,62.55"
2024-05-28_13-25-30.467885,"67.78,45.54"
2024-05-28_13-25-30.500641,"52.46,71.72"
2024-05-28_13-25-30.533358,"61.93,65.82"
2024-05-28_13-25-30.562417,"69.47,76.04"
2024-05-28_13-25-30.594913,"59.57,73.91"
2024-05-28_13-25-30.627763,"52.31,70.27"
2024-05-28_13-25-30.660572,"78.74,77.73"
2024-05-28_13-25-30.693210,"76.64,73.01"
2024-05-28_13-25-30.725990,"74.30,63.51"
2024-05-28_13-25-30.758641,"86.99,41.40"
2024-05-28_13-25-30.787377,"80.36,66.87"
2024-05-28_13-25-30.820153,"68.53,56.91"
2024-05-28_13-25-30.852891,"59.01,75.17"
2024-05-28_13-25-30.885696,"57.30,66.99"
2024-05-28_13-25-30.918512,"67.18,72.83"
2024-05-28_13-25-30.951271,"79.01,59.63"
2024-05-28_13-25-30.983946,"51.96,82.18"
2024-05-28_13-25-31.012727,"89.47,77.79"
2024-05-28_13-25-31.045607,"61.10,49.87"
2024-05-28_13-25-31.078282,"78.01,39.82"
2024-05-28_13-25-31.111042,"93.69,56.13"
2024-05-28_13-25-31.143747,"73.99,52.10"
2024-05-28_13-25-31.176543,"50.04,72.67"
2024-05-28_13-25-31.209217,"58.28,65.24"
2024-05-28_13-25-31.237939,"53.59,73.06"
2024-05-28_13-25-31.270714,"68.10,67.72"
2024-05-28_13-25-31.303467,"50.23,80.27"
2024-05-28_13-25-31.336228,"68.94,78.04"
2024-05-28_13-25-31.368993,"79.85,69.51"
2024-05-28_13-25-31.401788,"74.15,59.14"
2024-05-28_13-25-31.434476,"90.44,47.02"
2024-05-28_13-25-31.463245,"78.39,60.35"
2024-05-28_13-25-31.496101,"67.63,60.37"
2024-05-28_13-25-31.528775,"59.20,64.89"
2024-05-28_13-25-31.561565,"47.14,70.31"
2024-05-28_13-25-31.594254,"62.89,76.87"
2024-05-28_13-25-31.627058,"65.57,69.83"
2024-05-28_13-25-31.659744,"51.93,75.61"
2024-05-28_13-25-31.688511,"89.32,70.70"
2024-05-28_13-25-31.721233,"69.78,80.23"
2024-05-28_13-25-31.753975,"78.71,41.21"
2024-05-28_13-25-31.786734,"84.73,44.24"
2024-05-28_13-25-31.819542,"83.10,59.94"
2024-05-28_13-25-31.852340,"52.24,65.56"
2024-05-28_13-25-31.885024,"56.66,76.14"
2024-05-28_13-25-31.913742,"54.04,71.50"
2024-05-28_13-25-31.946623,"67.80,68.83"
2024-05-28_13-25-31.979284,"71.18,78.42"
2024-05-28_13-25-32.012052,"68.68,76.30"
2024-05-28_13-25-32.044811,"81.14,75.64"
2024-05-28_13-25-32.077552,"75.59,61.88"
2024-05-28_13-25-32.110327,"85.88,47.64"
2024-05-28_13-25-32.139002,"95.09,57.87"
2024-05-28_13-25-32.171762,"65.01,63.34"
2024-05-28_13-25-32.204537,"52.81,65.12"
2024-05-28_13-25-32.237302,"53.29,71.66"
2024-05-28_13-25-32.270061,"62.71,67.07"
2024-05-28_13-25-32.302838,"68.48,71.35"
2024-05-28_13-25-32.335552,"52.42,81.05"
2024-05-28_13-25-32.364277,"91.22,87.13"
2024-05-28_13-25-32.397048,"74.62,77.83"
2024-05-28_13-25-32.429814,"74.85,50.28"
2024-05-28_13-25-32.462534,"95.32,41.32"
2024-05-28_13-25-32.495659,"86.40,52.70"
2024-05-28_13-25-32.528127,"60.95,64.56"
2024-05-28_13-25-32.560830,"51.59,71.43"
2024-05-28_13-25-32.593542,"62.88,66.32"
2024-05-28_13-25-32.622333,"64.93,77.20"
2024-05-28_13-25-32.655092,"55.48,74.10"
2024-05-28_13-25-32.687847,"54.14,75.48"
2024-05-28_13-25-32.720690,"91.84,69.09"
2024-05-28_13-25-32.753372,"75.02,69.93"
2024-05-28_13-25-32.786179,"83.72,42.48"
2024-05-28_13-25-32.818772,"89.69,60.55"
2024-05-28_13-25-32.847588,"66.14,47.78"
2024-05-28_13-25-32.880395,"47.15,71.27"
2024-05-28_13-25-32.913118,"60.80,75.07"
2024-05-28_13-25-32.945887,"57.48,67.50"
2024-05-28_13-25-32.978667,"79.39,78.56"
2024-05-28_13-25-33.011388,"54.33,70.80"
2024-05-28_13-25-33.044042,"77.05,81.06"
2024-05-28_13-25-33.072850,"77.25,77.47"
2024-05-28_13-25-33.105621,"71.03,46.32"
2024-05-28_13-25-33.138412,"84.96,39.37"
2024-05-28_13-25-33.171196,"92.50,63.19"
2024-05-28_13-25-33.203936,"54.76,62.47"
2024-05-28_13-25-33.236694,"51.52,71.37"
2024-05-28_13-25-33.269329,"59.38,65.80"
2024-05-28_13-25-33.298123,"69.37,73.49"
2024-05-28_13-25-33.330911,"59.50,68.73"
2024-05-28_13-25-33.363657,"89.56,83.56"
2024-05-28_13-25-33.396473,"74.73,78.82"
2024-05-28_13-25-33.429178,"68.85,67.64"
2024-05-28_13-25-33.461951,"85.83,35.70"
2024-05-28_13-25-33.494633,"91.02,52.17"
2024-05-28_13-25-33.523401,"64.58,47.77"
2024-05-28_13-25-33.556191,"52.00,72.08"
2024-05-28_13-25-33.588931,"61.85,65.67"
2024-05-28_13-25-33.621757,"64.25,72.46"
2024-05-28_13-25-33.654458,"59.67,79.02"
2024-05-28_13-25-33.687278,"50.27,70.35"
2024-05-28_13-25-33.719965,"86.81,81.90"
2024-05-28_13-25-33.748659,"68.60,70.55"
2024-05-28_13-25-33.781439,"84.36,62.11"
2024-05-28_13-25-33.814176,"89.61,68.33"
2024-05-28_13-25-33.846947,"57.12,44.49"
2024-05-28_13-25-33.879721,"51.18,72.44"
2024-05-28_13-25-33.912503,"59.16,65.99"
2024-05-28_13-25-33.945233,"58.51,76.65"
2024-05-28_13-25-33.973967,"82.10,76.98"
2024-05-28_13-25-34.006703,"52.80,70.60"
2024-05-28_13-25-34.039481,"75.61,85.88"
2024-05-28_13-25-34.072211,"86.79,64.38"
2024-05-28_13-25-34.104982,"66.87,62.94"
2024-05-28_13-25-34.137828,"84.29,42.40"
2024-05-28_13-25-34.170523,"82.63,70.67"
2024-05-28_13-25-34.199235,"54.74,57.19"
2024-05-28_13-25-34.231974,"57.10,75.58"
2024-05-28_13-25-34.264772,"57.96,66.59"
2024-05-28_13-25-34.297503,"54.72,72.46"
2024-05-28_13-25-34.330281,"79.44,68.88"
2024-05-28_13-25-34.363079,"49.25,73.97"
2024-05-28_13-25-34.395725,"103.43,82.40"
2024-05-28_13-25-34.424496,"60.83,71.50"
2024-05-28_13-25-34.457239,"76.20,39.97"
2024-05-28_13-25-34.490044,"98.18,46.95"
2024-05-28_13-25-34.522791,"59.97,54.42"
2024-05-28_13-25-34.555558,"65.64,75.39"
2024-05-28_13-25-34.588286,"55.62,64.33"
2024-05-28_13-25-34.620988,"54.79,71.93"
2024-05-28_13-25-34.649780,"73.42,67.80"
2024-05-28_13-25-34.682550,"56.81,79.00"
2024-05-28_13-25-34.715314,"69.12,75.63"
2024-05-28_13-25-34.748098,"89.49,77.36"
2024-05-28_13-25-34.780800,"70.66,74.58"
2024-05-28_13-25-34.813676,"86.32,48.19"
2024-05-28_13-25-34.846279,"90.17,40.21"
2024-05-28_13-25-34.875037,"74.63,53.84"
2024-05-28_13-25-34.907799,"55.64,65.42"
2024-05-28_13-25-34.940567,"47.73,70.19"
2024-05-28_13-25-34.973309,"61.87,76.35"
2024-05-28_13-25-35.006094,"80.16,72.89"
2024-05-28_13-25-35.038876,"68.85,65.84"
2024-05-28_13-25-35.071636,"92.91,74.41"
2024-05-28_13-25-35.100290,"70.18,80.57"
2024-05-28_13-25-35.133068,"79.56,62.01"
2024-05-28_13-25-35.165849,"93.11,43.32"
2024-05-28_13-25-35.198645,"70.30,64.07"
2024-05-28_13-25-35.231345,"54.90,66.01"
2024-05-28_13-25-35.264360,"55.32,75.66"
2024-05-28_13-25-35.296981,"53.68,71.35"
2024-05-28_13-25-35.325608,"68.26,68.12"
2024-05-28_13-25-35.358362,"54.82,73.34"
2024-05-28_13-25-35.391128,"67.66,73.44"
2024-05-28_13-25-35.423846,"76.10,80.48"
2024-05-28_13-25-35.456645,"75.89,61.89"
2024-05-28_13-25-35.489403,"90.54,47.13"
2024-05-28_13-25-35.522137,"67.89,58.26"
2024-05-28_13-25-35.550845,"60.08,62.91"
2024-05-28_13-25-35.583593,"53.75,65.22"
2024-05-28_13-25-35.616368,"54.71,71.26"
2024-05-28_13-25-35.649127,"74.00,68.09"
2024-05-28_13-25-35.681889,"54.90,73.04"
2024-05-28_13-25-35.714679,"68.31,90.59"
2024-05-28_13-25-35.747404,"81.10,64.92"
2024-05-28_13-25-35.780093,"73.72,60.92"
2024-05-28_13-25-35.808867,"89.54,48.48"
2024-05-28_13-25-35.841582,"68.53,62.66"
2024-05-28_13-25-35.874408,"63.94,60.42"
2024-05-28_13-25-35.907199,"53.46,64.55"
2024-05-28_13-25-35.939930,"54.80,70.60"
2024-05-28_13-25-35.972711,"61.74,67.92"
2024-05-28_13-25-36.005343,"58.63,79.25"
2024-05-28_13-25-36.034211,"68.27,80.03"
2024-05-28_13-25-36.066933,"84.45,71.45"
2024-05-28_13-25-36.099660,"70.33,75.27"
2024-05-28_13-25-36.132445,"86.45,49.65"
2024-05-28_13-25-36.165215,"86.10,39.61"
2024-05-28_13-25-36.197947,"85.35,65.62"
2024-05-28_13-25-36.230653,"56.55,65.24"
2024-05-28_13-25-36.259378,"46.53,71.22"
2024-05-28_13-25-36.292256,"60.30,76.34"
2024-05-28_13-25-36.325107,"70.68,69.39"
2024-05-28_13-25-36.357839,"49.95,75.47"
2024-05-28_13-25-36.390622,"94.61,85.63"
2024-05-28_13-25-36.423592,"71.33,80.95"
2024-05-28_13-25-36.455974,"78.11,40.77"
2024-05-28_13-25-36.484698,"93.51,43.73"
2024-05-28_13-25-36.517460,"82.54,59.04"
2024-05-28_13-25-36.550276,"52.84,65.08"
2024-05-28_13-25-36.583011,"56.31,76.31"
2024-05-28_13-25-36.615972,"53.79,71.80"
2024-05-28_13-25-36.649061,"66.63,67.07"
2024-05-28_13-25-36.681364,"58.05,74.87"
2024-05-28_13-25-36.709993,"67.68,75.35"
2024-05-28_13-25-36.742780,"76.56,77.29"
2024-05-28_13-25-36.775551,"74.76,62.17"
2024-05-28_13-25-36.808354,"90.29,47.92"
2024-05-28_13-25-36.841230,"82.50,54.26"
2024-05-28_13-25-36.873759,"69.57,62.80"
2024-05-28_13-25-36.906472,"54.78,66.12"
2024-05-28_13-25-36.935234,"53.51,70.67"
2024-05-28_13-25-36.968005,"76.25,68.70"
2024-05-28_13-25-37.000753,"59.36,72.46"
2024-05-28_13-25-37.033600,"63.04,85.88"
2024-05-28_13-25-37.066407,"76.99,64.73"
2024-05-28_13-25-37.099132,"73.32,62.31"
2024-05-28_13-25-37.131743,"84.84,49.01"
2024-05-28_13-25-37.160548,"78.09,38.98"
2024-05-28_13-25-37.197200,"75.44,52.27"
2024-05-28_13-25-37.226074,"51.56,64.04"
2024-05-28_13-25-37.258877,"54.13,72.03"
2024-05-28_13-25-37.291732,"62.65,66.63"
2024-05-28_13-25-37.324618,"65.32,78.48"
2024-05-28_13-25-37.357011,"50.59,76.00"
2024-05-28_13-25-37.385764,"89.52,74.68"
2024-05-28_13-25-37.418611,"70.68,76.28"
2024-05-28_13-25-37.451337,"81.02,49.88"
2024-05-28_13-25-37.484054,"71.37,41.54"
2024-05-28_13-25-37.516892,"85.63,59.49"
2024-05-28_13-25-37.549614,"54.80,65.08"
2024-05-28_13-25-37.582379,"47.44,69.79"
2024-05-28_13-25-37.611049,"62.17,76.70"
2024-05-28_13-25-37.643839,"70.32,69.11"
2024-05-28_13-25-37.676622,"50.83,75.72"
2024-05-28_13-25-37.709479,"92.02,87.09"
2024-05-28_13-25-37.742098,"70.26,81.00"
2024-05-28_13-25-37.774894,"78.08,41.66"
2024-05-28_13-25-37.807560,"95.18,44.62"
2024-05-28_13-25-37.836349,"70.49,63.14"
2024-05-28_13-25-37.869088,"53.44,65.62"
2024-05-28_13-25-37.901894,"58.05,76.12"
2024-05-28_13-25-37.934680,"53.27,71.60"
2024-05-28_13-25-37.967421,"77.11,67.87"
2024-05-28_13-25-38.000341,"55.63,75.55"
2024-05-28_13-25-38.032870,"98.56,73.17"
2024-05-28_13-25-38.061718,"52.77,82.83"
2024-05-28_13-25-38.094351,"73.54,62.17"
2024-05-28_13-25-38.127096,"97.75,47.68"
2024-05-28_13-25-38.159931,"63.61,66.00"
2024-05-28_13-25-38.192665,"53.35,76.70"
2024-05-28_13-25-38.225402,"56.63,65.76"
2024-05-28_13-25-38.258156,"54.12,70.92"
2024-05-28_13-25-38.290859,"70.96,68.67"
2024-05-28_13-25-38.319716,"49.67,73.43"
2024-05-28_13-25-38.352442,"67.63,84.33"
2024-05-28_13-25-38.385225,"75.77,71.47"
2024-05-28_13-25-38.417946,"74.37,60.62"
2024-05-28_13-25-38.450801,"95.80,47.28"
2024-05-28_13-25-38.483416,"60.61,54.15"
2024-05-28_13-25-38.516134,"66.97,74.76"
2024-05-28_13-25-38.544896,"54.44,64.44"
2024-05-28_13-25-38.577665,"55.74,71.08"
2024-05-28_13-25-38.610419,"67.10,69.52"
2024-05-28_13-25-38.643307,"50.18,79.84"
2024-05-28_13-25-38.676018,"68.01,78.69"
2024-05-28_13-25-38.708733,"79.64,72.29"
2024-05-28_13-25-38.741377,"76.73,37.08"
2024-05-28_13-25-38.770161,"93.46,47.58"
2024-05-28_13-25-38.803072,"59.76,66.84"
2024-05-28_13-25-38.835856,"61.50,59.69"
2024-05-28_13-25-38.868479,"59.99,65.58"
2024-05-28_13-25-38.901295,"50.09,69.62"
2024-05-28_13-25-38.933969,"68.23,79.30"
2024-05-28_13-25-38.966665,"51.48,71.42"
2024-05-28_13-25-38.995486,"68.21,78.31"
2024-05-28_13-25-39.028266,"84.67,66.46"
2024-05-28_13-25-39.061011,"79.87,78.64"
2024-05-28_13-25-39.093823,"64.89,74.00"
2024-05-28_13-25-39.126551,"56.49,67.64"
2024-05-28_13-25-39.159242,"57.01,58.35"
2024-05-28_13-25-39.191961,"59.82,65.35"
2024-05-28_13-25-39.220695,"56.31,77.71"
2024-05-28_13-25-39.253496,"65.44,73.44"
2024-05-28_13-25-39.286259,"55.07,69.81"
2024-05-28_13-25-39.319178,"78.10,77.95"
2024-05-28_13-25-39.351775,"79.71,66.65"
2024-05-28_13-25-39.384524,"72.50,63.03"
2024-05-28_13-25-39.417219,"86.48,40.91"
2024-05-28_13-25-39.446011,"82.58,63.33"
2024-05-28_13-25-39.478742,"68.26,56.46"
2024-05-28_13-25-39.511535,"60.00,76.17"
2024-05-28_13-25-39.544339,"57.95,67.54"
2024-05-28_13-25-39.577064,"63.70,72.65"
2024-05-28_13-25-39.609758,"58.90,69.90"
2024-05-28_13-25-39.642560,"77.31,81.32"
2024-05-28_13-25-39.671633,"76.80,78.00"
2024-05-28_13-25-39.704254,"71.61,46.49"
2024-05-28_13-25-39.736781,"87.45,38.87"
2024-05-28_13-25-39.769539,"66.91,69.11"
2024-05-28_13-25-39.802321,"60.13,63.27"
2024-05-28_13-25-39.835067,"53.10,71.94"
2024-05-28_13-25-39.867935,"59.80,66.63"
2024-05-28_13-25-39.896542,"67.92,72.50"
2024-05-28_13-25-39.929263,"56.93,71.16"
2024-05-28_13-25-39.962029,"82.81,81.96"
2024-05-28_13-25-39.994792,"71.55,77.66"
2024-05-28_13-25-40.027606,"75.66,48.95"
2024-05-28_13-25-40.060387,"92.35,35.46"
2024-05-28_13-25-40.093009,"48.23,77.31"
2024-05-28_13-25-40.121831,"55.34,68.57"
2024-05-28_13-25-40.154607,"55.39,71.80"
2024-05-28_13-25-40.187363,"62.94,65.95"
2024-05-28_13-25-40.220111,"65.05,72.31"
2024-05-28_13-25-40.252888,"51.61,81.11"
2024-05-28_13-25-40.285672,"83.97,70.86"
2024-05-28_13-25-40.318349,"72.44,76.73"
2024-05-28_13-25-40.347056,"84.08,49.20"
2024-05-28_13-25-40.379848,"88.57,39.68"
2024-05-28_13-25-40.412645,"86.24,60.02"
2024-05-28_13-25-40.445370,"51.09,64.67"
2024-05-28_13-25-40.478113,"53.52,70.72"
2024-05-28_13-25-40.510930,"62.29,67.04"
2024-05-28_13-25-40.543593,"68.12,79.55"
2024-05-28_13-25-40.572351,"50.88,74.36"
2024-05-28_13-25-40.605311,"87.65,69.95"
2024-05-28_13-25-40.637985,"71.20,76.24"
2024-05-28_13-25-40.670688,"82.57,49.73"
2024-05-28_13-25-40.703394,"83.92,40.15"
2024-05-28_13-25-40.736184,"85.84,61.26"
2024-05-28_13-25-40.768892,"57.51,65.88"
2024-05-28_13-25-40.801612,"47.35,69.49"
2024-05-28_13-25-40.830380,"61.80,76.09"
2024-05-28_13-25-40.863276,"68.77,70.24"
2024-05-28_13-25-40.896127,"50.80,74.16"
2024-05-28_13-25-40.928715,"89.27,70.24"
2024-05-28_13-25-40.961505,"69.51,80.36"
2024-05-28_13-25-40.994127,"79.23,41.25"
2024-05-28_13-25-41.026862,"85.05,43.73"
2024-05-28_13-25-41.055686,"83.65,58.08"
2024-05-28_13-25-41.088393,"53.49,65.98"
2024-05-28_13-25-41.121185,"55.74,77.44"
2024-05-28_13-25-41.153942,"55.74,72.94"
2024-05-28_13-25-41.186785,"70.15,68.37"
2024-05-28_13-25-41.219439,"56.20,76.87"
2024-05-28_13-25-41.252181,"91.99,69.04"
2024-05-28_13-25-41.280885,"60.17,79.03"
2024-05-28_13-25-41.313654,"80.08,42.45"
2024-05-28_13-25-41.346465,"81.90,46.79"
2024-05-28_13-25-41.379272,"67.81,45.61"
2024-05-28_13-25-41.412009,"55.95,75.09"
2024-05-28_13-25-41.444715,"57.94,66.95"
2024-05-28_13-25-41.477448,"53.69,73.38"
2024-05-28_13-25-41.506169,"66.36,68.83"
2024-05-28_13-25-41.538959,"52.28,81.14"
2024-05-28_13-25-41.571811,"89.05,80.15"
2024-05-28_13-25-41.604529,"62.27,66.15"
2024-05-28_13-25-41.637348,"81.98,39.77"
2024-05-28_13-25-41.669971,"78.09,45.72"
2024-05-28_13-25-41.702689,"68.28,73.64"
2024-05-28_13-25-41.731443,"51.82,72.45"
2024-05-28_13-25-41.764267,"58.85,65.15"
2024-05-28_13-25-41.797015,"53.36,73.73"
2024-05-28_13-25-41.829786,"66.58,68.44"
2024-05-28_13-25-41.862523,"51.98,83.08"
2024-05-28_13-25-41.895271,"89.89,76.73"
2024-05-28_13-25-41.928026,"71.30,50.23"
2024-05-28_13-25-41.956723,"86.05,35.85"
2024-05-28_13-25-41.989524,"78.62,56.69"
2024-05-28_13-25-42.022296,"68.59,65.18"
2024-05-28_13-25-42.055020,"53.04,71.48"
2024-05-28_13-25-42.087848,"60.34,68.98"
2024-05-28_13-25-42.120550,"84.83,73.48"
2024-05-28_13-25-42.153246,"53.34,79.34"
2024-05-28_13-25-42.182013,"52.52,75.41"
2024-05-28_13-25-42.214756,"89.97,73.47"
2024-05-28_13-25-42.247497,"72.91,68.43"
2024-05-28_13-25-42.280362,"90.99,40.50"
2024-05-28_13-25-42.313147,"72.14,42.02"
2024-05-28_13-25-42.345827,"45.45,64.24"
2024-05-28_13-25-42.378567,"52.23,71.81"
2024-05-28_13-25-42.407459,"63.53,65.99"
2024-05-28_13-25-42.440113,"75.66,77.83"
2024-05-28_13-25-42.472913,"49.52,75.76"
2024-05-28_13-25-42.505586,"92.99,73.73"
2024-05-28_13-25-42.538463,"72.30,77.40"
2024-05-28_13-25-42.571112,"79.63,50.14"
2024-05-28_13-25-42.603802,"82.67,41.20"
2024-05-28_13-25-42.632508,"73.01,64.51"
2024-05-28_13-25-42.665353,"54.41,65.17"
2024-05-28_13-25-42.698146,"46.35,69.94"
2024-05-28_13-25-42.730910,"62.66,76.48"
2024-05-28_13-25-42.763670,"74.17,69.01"
2024-05-28_13-25-42.796379,"50.85,75.37"
2024-05-28_13-25-42.829069,"93.32,87.63"
2024-05-28_13-25-42.857807,"70.16,81.01"
2024-05-28_13-25-42.890634,"77.89,41.53"
2024-05-28_13-25-42.923407,"95.10,44.10"
2024-05-28_13-25-42.956127,"83.78,60.99"
2024-05-28_13-25-42.988891,"52.26,65.30"
2024-05-28_13-25-43.021956,"57.45,76.09"
2024-05-28_13-25-43.054367,"54.08,71.41"
2024-05-28_13-25-43.083116,"76.25,69.28"
2024-05-28_13-25-43.115822,"89.55,69.61"
2024-05-28_13-25-43.148583,"86.68,85.01"
2024-05-28_13-25-43.181372,"58.99,81.67"
2024-05-28_13-25-43.214167,"79.55,43.06"
2024-05-28_13-25-43.246918,"98.74,46.25"
2024-05-28_13-25-43.279730,"79.60,57.60"
2024-05-28_13-25-43.308366,"56.40,76.03"
2024-05-28_13-25-43.341133,"56.88,66.21"
2024-05-28_13-25-43.373884,"54.30,72.66"
2024-05-28_13-25-43.406676,"77.41,69.25"
2024-05-28_13-25-43.439412,"50.33,82.09"
2024-05-28_13-25-43.472185,"92.51,73.98"
2024-05-28_13-25-43.504893,"62.93,68.53"
2024-05-28_13-25-43.533656,"80.05,39.41"
2024-05-28_13-25-43.566416,"95.91,57.14"
2024-05-28_13-25-43.599182,"75.56,51.23"
2024-05-28_13-25-43.631983,"52.22,72.94"
2024-05-28_13-25-43.664708,"58.42,65.02"
2024-05-28_13-25-43.697477,"55.31,72.05"
2024-05-28_13-25-43.730196,"72.43,69.27"
2024-05-28_13-25-43.762891,"51.15,84.61"
2024-05-28_13-25-43.791689,"90.50,75.17"
2024-05-28_13-25-43.824451,"67.07,69.15"
2024-05-28_13-25-43.857182,"83.73,35.82"
2024-05-28_13-25-43.889967,"77.16,65.94"
2024-05-28_13-25-43.922733,"63.41,49.42"
2024-05-28_13-25-43.955454,"52.71,72.15"
2024-05-28_13-25-43.988143,"63.75,65.85"
2024-05-28_13-25-44.016992,"64.14,71.26"
2024-05-28_13-25-44.049703,"58.18,78.50"
2024-05-28_13-25-44.082430,"51.73,77.81"
2024-05-28_13-25-44.115268,"91.33,72.22"
2024-05-28_13-25-44.148023,"62.56,71.74"
2024-05-28_13-25-44.180752,"94.39,63.30"
2024-05-28_13-25-44.213480,"74.83,63.93"
2024-05-28_13-25-44.242197,"52.62,46.03"
2024-05-28_13-25-44.274972,"51.87,71.26"
2024-05-28_13-25-44.307771,"63.47,65.81"
2024-05-28_13-25-44.340548,"66.68,78.90"
2024-05-28_13-25-44.373328,"53.58,73.47"
2024-05-28_13-25-44.405989,"54.34,74.38"
2024-05-28_13-25-44.438688,"88.43,76.16"
2024-05-28_13-25-44.467469,"77.86,68.23"
2024-05-28_13-25-44.500316,"80.34,42.55"
2024-05-28_13-25-44.533030,"73.64,52.01"
2024-05-28_13-25-44.565843,"65.06,66.30"
2024-05-28_13-25-44.598567,"45.85,70.14"
2024-05-28_13-25-44.631309,"62.72,77.04"
2024-05-28_13-25-44.664012,"60.21,68.24"
2024-05-28_13-25-44.692761,"49.83,73.93"
2024-05-28_13-25-44.725534,"85.23,74.08"
2024-05-28_13-25-44.758331,"73.18,81.35"
2024-05-28_13-25-44.791031,"78.35,41.91"
2024-05-28_13-25-44.823978,"84.09,43.72"
2024-05-28_13-25-44.856778,"71.76,60.80"
2024-05-28_13-25-44.889324,"53.48,64.99"
2024-05-28_13-25-44.918048,"56.03,75.45"
2024-05-28_13-25-44.950784,"53.41,73.02"
2024-05-28_13-25-44.983556,"73.79,68.69"
2024-05-28_13-25-45.016329,"55.59,76.33"
2024-05-28_13-25-45.049142,"93.25,69.87"
2024-05-28_13-25-45.081815,"60.59,78.79"
2024-05-28_13-25-45.114546,"81.20,42.13"
2024-05-28_13-25-45.143386,"70.80,67.18"
2024-05-28_13-25-45.176040,"49.06,73.72"
2024-05-28_13-25-45.208893,"58.44,74.88"
2024-05-28_13-25-45.241602,"57.69,68.20"
2024-05-28_13-25-45.274425,"52.77,72.33"
2024-05-28_13-25-45.307129,"64.80,69.23"
2024-05-28_13-25-45.339863,"52.81,82.00"
2024-05-28_13-25-45.368570,"74.83,78.80"
2024-05-28_13-25-45.401338,"66.00,66.28"
2024-05-28_13-25-45.434137,"83.46,38.05"
2024-05-28_13-25-45.466862,"94.12,63.91"
2024-05-28_13-25-45.499596,"54.71,62.61"
2024-05-28_13-25-45.532359,"52.46,72.22"
2024-05-28_13-25-45.565071,"59.43,66.49"
2024-05-28_13-25-45.594125,"66.29,72.41"
2024-05-28_13-25-45.626795,"57.07,70.99"
2024-05-28_13-25-45.660948,"84.06,79.70"
2024-05-28_13-25-45.692323,"72.80,76.91"
2024-05-28_13-25-45.725406,"79.76,48.28"
2024-05-28_13-25-45.759028,"83.42,34.71"
2024-05-28_13-25-45.790647,"77.00,74.02"
2024-05-28_13-25-45.819102,"51.21,64.51"
2024-05-28_13-25-45.852165,"54.41,71.23"
2024-05-28_13-25-45.884665,"76.97,67.76"
2024-05-28_13-25-45.917422,"56.13,71.96"
2024-05-28_13-25-45.950177,"68.76,80.99"
2024-05-28_13-25-45.982954,"84.61,78.23"
2024-05-28_13-25-46.015640,"72.64,60.51"
2024-05-28_13-25-46.044386,"88.47,47.87"
2024-05-28_13-25-46.077156,"68.38,66.39"
2024-05-28_13-25-46.109918,"66.03,60.55"
2024-05-28_13-25-46.142650,"54.69,64.80"
2024-05-28_13-25-46.175444,"52.63,72.77"
2024-05-28_13-25-46.208190,"93.12,69.62"
2024-05-28_13-25-46.240903,"54.48,81.55"
2024-05-28_13-25-46.269609,"68.65,80.68"
2024-05-28_13-25-46.302407,"80.83,67.02"
2024-05-28_13-25-46.337723,"77.12,58.49"
2024-05-28_13-25-46.368258,"96.05,47.70"
2024-05-28_13-25-46.400772,"58.11,56.19"
2024-05-28_13-25-46.433575,"51.72,74.23"
2024-05-28_13-25-46.466347,"62.97,66.12"
2024-05-28_13-25-46.498867,"49.57,70.16"
2024-05-28_13-25-46.527708,"65.47,79.42"
2024-05-28_13-25-46.560425,"50.13,71.12"
2024-05-28_13-25-46.593261,"99.47,79.19"
2024-05-28_13-25-46.626053,"69.03,71.43"
2024-05-28_13-25-46.658861,"86.69,62.41"
2024-05-28_13-25-46.691488,"89.71,59.86"
2024-05-28_13-25-46.724189,"62.62,45.00"
2024-05-28_13-25-46.752957,"52.00,72.22"
2024-05-28_13-25-46.785724,"62.14,66.42"
2024-05-28_13-25-46.818506,"68.46,76.72"
2024-05-28_13-25-46.851241,"56.29,73.80"
2024-05-28_13-25-46.884022,"53.61,76.97"
2024-05-28_13-25-46.916746,"90.41,70.78"
2024-05-28_13-25-46.949493,"76.90,69.13"
2024-05-28_13-25-46.978215,"89.46,42.04"
2024-05-28_13-25-47.010951,"73.52,51.96"
2024-05-28_13-25-47.043870,"67.35,66.47"
2024-05-28_13-25-47.076528,"47.43,70.67"
2024-05-28_13-25-47.109337,"61.74,75.53"
2024-05-28_13-25-47.142079,"64.87,68.56"
2024-05-28_13-25-47.174798,"53.24,74.13"
2024-05-28_13-25-47.203499,"78.19,80.94"
2024-05-28_13-25-47.236301,"69.30,71.28"
2024-05-28_13-25-47.268991,"78.23,61.44"
2024-05-28_13-25-47.301828,"92.35,43.94"
2024-05-28_13-25-47.334569,"70.95,66.55"
2024-05-28_13-25-47.367321,"55.52,65.69"
2024-05-28_13-25-47.400025,"56.19,75.36"
2024-05-28_13-25-47.428791,"53.11,71.40"
2024-05-28_13-25-47.461531,"74.14,67.94"
2024-05-28_13-25-47.494361,"54.56,77.42"
2024-05-28_13-25-47.527088,"95.90,85.68"
2024-05-28_13-25-47.559931,"62.17,80.96"
2024-05-28_13-25-47.592599,"80.30,41.60"
2024-05-28_13-25-47.625275,"92.47,46.13"
2024-05-28_13-25-47.656135,"66.10,60.72"
2024-05-28_13-25-47.686870,"56.65,75.27"
2024-05-28_13-25-47.719595,"56.71,66.02"
2024-05-28_13-25-47.752389,"54.86,71.68"
2024-05-28_13-25-47.785257,"65.93,69.35"
2024-05-28_13-25-47.817912,"52.69,84.00"
2024-05-28_13-25-47.850721,"88.79,78.44"
2024-05-28_13-25-47.879400,"65.33,67.13"
2024-05-28_13-25-47.912105,"82.82,38.44"
2024-05-28_13-25-47.944905,"89.08,68.52"
2024-05-28_13-25-47.977668,"51.82,62.56"
2024-05-28_13-25-48.010453,"52.27,71.37"
2024-05-28_13-25-48.043145,"57.55,65.54"
2024-05-28_13-25-48.075865,"69.26,72.11"
2024-05-28_13-25-48.104654,"59.46,71.14"
2024-05-28_13-25-48.137371,"86.74,73.71"
2024-05-28_13-25-48.170120,"72.07,77.70"
2024-05-28_13-25-48.202866,"75.57,48.64"
2024-05-28_13-25-48.235661,"83.29,57.66"
2024-05-28_13-25-48.268472,"55.36,69.28"
2024-05-28_13-25-48.301097,"53.76,64.45"
2024-05-28_13-25-48.329885,"53.88,70.58"
2024-05-28_13-25-48.362645,"63.31,66.17"
2024-05-28_13-25-48.395404,"69.56,72.28"
2024-05-28_13-25-48.428162,"52.13,80.44"
2024-05-28_13-25-48.460929,"84.28,71.49"
2024-05-28_13-25-48.493669,"72.63,76.76"
2024-05-28_13-25-48.526401,"79.64,67.06"
2024-05-28_13-25-48.555125,"88.05,40.00"
2024-05-28_13-25-48.587946,"76.00,60.71"
2024-05-28_13-25-48.620749,"50.22,64.62"
2024-05-28_13-25-48.653665,"53.80,70.62"
2024-05-28_13-25-48.686242,"61.60,67.59"
2024-05-28_13-25-48.719007,"65.80,79.39"
2024-05-28_13-25-48.751686,"50.66,74.78"
2024-05-28_13-25-48.780382,"83.49,75.07"
2024-05-28_13-25-48.813184,"73.00,74.94"
2024-05-28_13-25-48.845992,"86.94,49.04"
2024-05-28_13-25-48.878708,"76.10,39.92"
2024-05-28_13-25-48.911458,"78.08,73.37"
2024-05-28_13-25-48.944292,"57.47,65.64"
2024-05-28_13-25-48.976997,"48.03,69.46"
2024-05-28_13-25-49.005673,"61.39,77.87"
2024-05-28_13-25-49.038440,"61.28,70.71"
2024-05-28_13-25-49.071222,"69.34,73.29"
2024-05-28_13-25-49.104084,"90.97,76.59"
2024-05-28_13-25-49.136749,"78.47,63.03"
2024-05-28_13-25-49.169520,"85.77,41.22"
2024-05-28_13-25-49.202218,"79.41,61.13"
2024-05-28_13-25-49.230965,"70.92,59.49"
2024-05-28_13-25-49.263720,"57.07,65.16"
2024-05-28_13-25-49.296507,"56.41,79.54"
2024-05-28_13-25-49.329260,"65.84,74.14"
2024-05-28_13-25-49.362059,"53.51,69.26"
2024-05-28_13-25-49.394804,"80.83,77.91"
2024-05-28_13-25-49.427495,"77.65,72.34"
2024-05-28_13-25-49.460182,"76.38,42.94"
2024-05-28_13-25-49.488987,"89.35,41.40"
2024-05-28_13-25-49.521752,"64.69,64.47"
2024-05-28_13-25-49.554523,"42.66,71.39"
2024-05-28_13-25-49.587314,"59.15,76.14"
2024-05-28_13-25-49.620064,"59.36,68.37"
2024-05-28_13-25-49.652770,"61.53,72.53"
2024-05-28_13-25-49.685476,"58.52,70.38"
2024-05-28_13-25-49.714272,"77.49,86.30"
2024-05-28_13-25-49.747087,"75.99,76.17"
2024-05-28_13-25-49.779837,"76.59,45.87"
2024-05-28_13-25-49.812625,"90.34,38.61"
2024-05-28_13-25-49.845491,"64.91,46.57"
2024-05-28_13-25-49.878019,"68.52,76.92"
2024-05-28_13-25-49.910775,"53.44,72.11"
2024-05-28_13-25-49.939508,"74.06,67.01"
2024-05-28_13-25-49.972281,"62.62,72.49"
2024-05-28_13-25-50.005107,"69.12,81.33"
2024-05-28_13-25-50.038067,"82.96,74.58"
2024-05-28_13-25-50.070755,"73.27,76.59"
2024-05-28_13-25-50.103347,"87.27,48.14"
2024-05-28_13-25-50.136019,"72.28,55.79"
2024-05-28_13-25-50.164780,"68.41,62.09"
2024-05-28_13-25-50.197568,"53.17,65.52"
2024-05-28_13-25-50.230362,"56.32,71.73"
2024-05-28_13-25-50.263108,"71.58,67.25"
2024-05-28_13-25-50.295890,"68.45,72.52"
2024-05-28_13-25-50.328615,"78.27,95.71"
2024-05-28_13-25-50.361309,"77.40,68.37"
2024-05-28_13-25-50.390078,"75.04,60.91"
2024-05-28_13-25-50.422834,"99.27,47.93"
2024-05-28_13-25-50.455623,"60.08,53.09"
2024-05-28_13-25-50.488348,"67.74,74.89"
2024-05-28_13-25-50.521147,"58.82,65.63"
2024-05-28_13-25-50.553917,"54.40,71.59"
2024-05-28_13-25-50.586573,"65.75,67.24"
2024-05-28_13-25-50.615390,"49.18,79.47"
2024-05-28_13-25-50.648085,"99.18,80.80"
2024-05-28_13-25-50.680859,"64.03,70.24"
2024-05-28_13-25-50.713694,"83.81,36.23"
2024-05-28_13-25-50.746447,"89.99,58.52"
2024-05-28_13-25-50.779176,"74.66,50.02"
2024-05-28_13-25-50.811921,"53.41,72.35"
2024-05-28_13-25-50.840655,"61.78,65.84"
2024-05-28_13-25-50.873397,"59.44,72.54"
2024-05-28_13-25-50.906137,"54.32,78.81"
2024-05-28_13-25-50.938920,"82.14,73.51"
2024-05-28_13-25-50.971680,"75.12,77.63"
2024-05-28_13-25-51.004404,"76.97,49.91"
2024-05-28_13-25-51.037123,"98.37,40.55"
2024-05-28_13-25-51.065918,"72.36,64.25"
2024-05-28_13-25-51.098678,"47.53,64.28"
2024-05-28_13-25-51.131432,"52.80,70.54"
2024-05-28_13-25-51.164221,"60.90,66.93"
2024-05-28_13-25-51.196962,"68.97,78.57"
2024-05-28_13-25-51.229755,"50.76,74.39"
2024-05-28_13-25-51.262444,"86.03,69.75"
2024-05-28_13-25-51.291168,"71.28,74.34"
2024-05-28_13-25-51.323931,"71.72,78.96"
2024-05-28_13-25-51.356753,"72.85,49.67"
2024-05-28_13-25-51.389417,"82.23,62.36"
2024-05-28_13-25-51.422219,"55.59,65.72"
2024-05-28_13-25-51.455012,"46.98,71.69"
2024-05-28_13-25-51.487691,"61.02,77.78"
2024-05-28_13-25-51.516432,"58.06,70.39"
2024-05-28_13-25-51.549205,"52.47,75.89"
2024-05-28_13-25-51.581962,"84.62,74.96"
2024-05-28_13-25-51.614737,"74.31,64.36"
2024-05-28_13-25-51.647541,"82.13,40.72"
2024-05-28_13-25-51.680281,"77.39,61.37"
2024-05-28_13-25-51.712999,"68.87,59.04"
2024-05-28_13-25-51.741711,"57.67,66.34"
2024-05-28_13-25-51.774510,"57.17,77.26"
2024-05-28_13-25-51.807267,"74.67,75.73"
2024-05-28_13-25-51.840033,"67.90,73.27"
2024-05-28_13-25-51.872774,"86.15,79.24"
2024-05-28_13-25-51.905572,"75.65,52.19"
2024-05-28_13-25-51.940520,"81.66,41.96"
2024-05-28_13-25-51.966980,"89.19,68.29"
2024-05-28_13-25-51.999764,"66.05,47.37"
2024-05-28_13-25-52.032567,"43.30,71.38"
2024-05-28_13-25-52.065280,"61.02,77.80"
2024-05-28_13-25-52.098080,"69.55,69.17"
2024-05-28_13-25-52.130839,"57.00,73.36"
2024-05-28_13-25-52.163542,"55.90,71.25"
2024-05-28_13-25-52.196263,"95.62,86.33"
2024-05-28_13-25-52.225035,"74.81,61.32"
2024-05-28_13-25-52.257754,"79.42,45.23"
2024-05-28_13-25-52.290644,"76.96,61.93"
2024-05-28_13-25-52.323301,"50.05,65.56"
2024-05-28_13-25-52.356103,"54.40,79.44"
2024-05-28_13-25-52.388756,"54.52,72.99"
2024-05-28_13-25-52.421527,"70.22,66.32"
2024-05-28_13-25-52.450290,"58.96,74.55"
2024-05-28_13-25-52.483039,"68.46,69.99"
2024-05-28_13-25-52.515811,"84.54,85.13"
2024-05-28_13-25-52.548617,"74.09,61.87"
2024-05-28_13-25-52.581391,"91.16,47.91"
2024-05-28_13-25-52.614062,"80.44,59.38"
2024-05-28_13-25-52.646791,"64.24,62.77"
2024-05-28_13-25-52.675562,"56.18,66.64"
2024-05-28_13-25-52.708356,"54.26,71.10"
2024-05-28_13-25-52.741095,"69.21,67.47"
2024-05-28_13-25-52.773860,"49.21,74.11"
2024-05-28_13-25-52.806630,"67.88,84.93"
2024-05-28_13-25-52.839431,"75.64,67.24"
2024-05-28_13-25-52.872049,"75.65,61.17"
2024-05-28_13-25-52.901006,"96.63,47.77"
2024-05-28_13-25-52.933609,"59.19,56.20"
2024-05-28_13-25-52.966407,"51.86,74.84"
2024-05-28_13-25-52.999148,"57.95,65.85"
2024-05-28_13-25-53.031937,"54.47,71.13"
2024-05-28_13-25-53.064642,"78.36,67.91"
2024-05-28_13-25-53.097366,"49.97,80.61"
2024-05-28_13-25-53.126106,"89.22,79.46"
2024-05-28_13-25-53.158877,"65.89,71.25"
2024-05-28_13-25-53.191647,"82.79,58.53"
2024-05-28_13-25-53.224420,"97.79,54.91"
2024-05-28_13-25-53.257168,"76.68,54.65"
2024-05-28_13-25-53.289906,"53.54,73.28"
2024-05-28_13-25-53.322643,"60.48,66.31"
2024-05-28_13-25-53.351441,"58.16,73.95"
2024-05-28_13-25-53.384165,"59.34,79.49"
2024-05-28_13-25-53.416889,"51.35,74.68"
2024-05-28_13-25-53.449684,"89.91,75.50"
2024-05-28_13-25-53.482496,"75.46,69.15"
2024-05-28_13-25-53.515247,"91.09,40.50"
2024-05-28_13-25-53.547922,"72.01,41.72"
2024-05-28_13-25-53.576649,"48.97,65.42"
2024-05-28_13-25-53.609442,"51.09,70.63"
2024-05-28_13-25-53.642207,"61.26,65.25"
2024-05-28_13-25-53.674962,"72.92,78.29"
2024-05-28_13-25-53.707758,"49.18,74.84"
2024-05-28_13-25-53.740471,"77.32,74.80"
2024-05-28_13-25-53.773183,"73.51,75.75"
2024-05-28_13-25-53.801919,"84.12,67.51"
2024-05-28_13-25-53.834668,"85.67,39.55"
2024-05-28_13-25-53.867560,"77.00,62.17"
2024-05-28_13-25-53.900232,"57.12,65.70"
2024-05-28_13-25-53.932981,"47.19,69.69"
2024-05-28_13-25-53.965714,"58.94,76.36"
2024-05-28_13-25-53.998457,"59.55,69.93"
2024-05-28_13-25-54.027169,"51.27,75.78"
2024-05-28_13-25-54.059992,"107.27,74.37"
2024-05-28_13-25-54.092743,"77.03,78.56"
2024-05-28_13-25-54.125506,"83.43,41.22"
2024-05-28_13-25-54.158269,"87.44,60.19"
2024-05-28_13-25-54.191086,"67.70,58.92"
2024-05-28_13-25-54.223736,"56.79,65.04"
2024-05-28_13-25-54.252475,"55.04,75.97"
2024-05-28_13-25-54.285268,"63.56,72.46"
2024-05-28_13-25-54.318013,"55.88,71.42"
2024-05-28_13-25-54.350732,"84.42,83.58"
2024-05-28_13-25-54.383505,"78.90,76.43"
2024-05-28_13-25-54.416318,"74.81,62.44"
2024-05-28_13-25-54.448988,"88.35,41.50"
2024-05-28_13-25-54.477720,"64.10,63.26"
2024-05-28_13-25-54.510494,"41.34,71.44"
2024-05-28_13-25-54.543293,"59.20,75.71"
2024-05-28_13-25-54.576087,"70.50,67.79"
2024-05-28_13-25-54.608804,"54.27,73.86"
2024-05-28_13-25-54.641588,"56.76,69.86"
2024-05-28_13-25-54.676350,"79.13,74.92"
2024-05-28_13-25-54.703194,"76.76,60.79"
2024-05-28_13-25-54.735820,"88.98,44.44"
2024-05-28_13-25-54.768532,"71.80,52.96"
2024-05-28_13-25-54.801308,"65.60,65.94"
2024-05-28_13-25-54.834099,"54.86,76.03"
2024-05-28_13-25-54.866864,"52.44,71.98"
2024-05-28_13-25-54.899586,"76.13,67.47"
2024-05-28_13-25-54.932299,"54.78,74.86"
2024-05-28_13-25-54.961072,"81.71,73.81"
2024-05-28_13-25-54.993838,"59.12,80.82"
2024-05-28_13-25-55.026573,"78.63,41.71"
2024-05-28_13-25-55.059383,"88.79,47.07"
2024-05-28_13-25-55.092092,"64.81,57.87"
2024-05-28_13-25-55.124818,"52.36,75.53"
2024-05-28_13-25-55.157547,"57.52,66.77"
2024-05-28_13-25-55.186340,"52.28,71.71"
2024-05-28_13-25-55.219092,"66.22,70.97"
2024-05-28_13-25-55.251858,"52.12,81.45"
2024-05-28_13-25-55.284622,"90.61,74.99"
2024-05-28_13-25-55.317477,"65.86,48.23"
2024-05-28_13-25-55.350111,"79.53,59.87"
2024-05-28_13-25-55.382834,"63.08,67.39"
2024-05-28_13-25-55.411602,"55.93,73.93"
2024-05-28_13-25-55.444335,"53.49,71.75"
2024-05-28_13-25-55.477108,"57.34,65.56"
2024-05-28_13-25-55.509901,"67.24,73.21"
2024-05-28_13-25-55.542692,"55.22,70.14"
2024-05-28_13-25-55.575463,"87.54,85.32"
2024-05-28_13-25-55.608088,"73.65,78.28"
2024-05-28_13-25-55.636822,"79.23,66.85"
2024-05-28_13-25-55.669624,"80.43,34.95"
2024-05-28_13-25-55.702439,"84.88,62.47"
2024-05-28_13-25-55.735160,"51.71,64.79"
2024-05-28_13-25-55.767930,"52.27,71.24"
2024-05-28_13-25-55.800681,"60.67,66.43"
2024-05-28_13-25-55.833392,"59.73,72.68"
2024-05-28_13-25-55.862178,"53.02,81.32"
2024-05-28_13-25-55.894931,"66.39,75.45"
2024-05-28_13-25-55.927683,"74.64,75.72"
2024-05-28_13-25-55.960509,"92.08,48.12"
2024-05-28_13-25-55.993259,"79.97,57.85"
2024-05-28_13-25-56.025995,"72.72,61.37"
2024-05-28_13-25-56.058730,"54.65,65.06"
2024-05-28_13-25-56.087432,"53.71,70.86"
2024-05-28_13-25-56.120229,"66.37,68.66"
2024-05-28_13-25-56.152968,"51.47,80.67"
2024-05-28_13-25-56.185722,"68.87,79.41"
2024-05-28_13-25-56.218490,"80.90,66.93"
2024-05-28_13-25-56.251602,"80.07,58.62"
2024-05-28_13-25-56.291091,"95.80,47.03"
2024-05-28_13-25-56.313054,"58.05,59.52"
2024-05-28_13-25-56.345504,"50.98,75.98"
2024-05-28_13-25-56.378216,"59.53,67.86"
2024-05-28_13-25-56.411242,"63.47,70.40"
2024-05-28_13-25-56.443751,"61.59,78.99"
2024-05-28_13-25-56.476505,"49.87,70.26"
2024-05-28_13-25-56.509221,"87.41,78.99"
2024-05-28_13-25-56.538055,"72.35,70.83"
2024-05-28_13-25-56.570741,"90.42,41.45"
2024-05-28_13-25-56.603510,"87.07,50.15"
2024-05-28_13-25-56.636318,"59.30,47.98"
2024-05-28_13-25-56.669060,"51.12,71.23"
2024-05-28_13-25-56.701942,"59.16,65.41"
2024-05-28_13-25-56.734501,"73.79,78.65"
2024-05-28_13-25-56.763555,"49.53,74.45"
2024-05-28_13-25-56.796045,"78.45,73.88"
2024-05-28_13-25-56.828767,"73.43,75.98"
2024-05-28_13-25-56.861535,"85.51,49.84"
2024-05-28_13-25-56.894335,"75.41,39.56"
2024-05-28_13-25-56.927130,"78.17,68.93"
2024-05-28_13-25-56.959728,"57.05,65.78"
2024-05-28_13-25-56.988602,"46.52,69.80"
2024-05-28_13-25-57.021427,"72.66,76.75"
2024-05-28_13-25-57.054226,"55.17,70.64"
2024-05-28_13-25-57.086768,"51.99,74.64"
2024-05-28_13-25-57.119564,"87.51,77.65"
2024-05-28_13-25-57.152368,"81.31,63.38"
2024-05-28_13-25-57.185060,"87.07,41.14"
2024-05-28_13-25-57.213764,"76.01,64.15"
2024-05-28_13-25-57.246596,"60.66,59.39"
2024-05-28_13-25-57.279302,"58.37,65.10"
2024-05-28_13-25-57.312127,"54.59,76.20"
2024-05-28_13-25-57.344859,"59.93,72.84"
2024-05-28_13-25-57.377641,"77.12,75.59"
2024-05-28_13-25-57.410346,"90.75,66.62"
2024-05-28_13-25-57.443091,"78.40,73.16"
2024-05-28_13-25-57.471808,"82.67,41.81"
2024-05-28_13-25-57.504572,"89.32,59.36"
2024-05-28_13-25-57.537372,"71.63,47.42"
2024-05-28_13-25-57.570129,"42.99,70.50"
2024-05-28_13-25-57.602889,"58.38,75.28"
2024-05-28_13-25-57.635622,"65.68,68.44"
2024-05-28_13-25-57.668350,"54.07,74.77"
2024-05-28_13-25-57.697072,"57.92,77.56"
2024-05-28_13-25-57.729850,"88.58,76.27"
2024-05-28_13-25-57.762636,"76.72,61.03"
2024-05-28_13-25-57.795430,"90.72,43.44"
2024-05-28_13-25-57.828152,"70.74,38.40"
2024-05-28_13-25-57.860914,"51.07,65.56"
2024-05-28_13-25-57.893605,"55.03,76.12"
2024-05-28_13-25-57.922375,"52.67,72.13"
2024-05-28_13-25-57.955139,"69.30,67.56"
2024-05-28_13-25-57.987881,"55.64,76.54"
2024-05-28_13-25-58.020641,"83.23,73.37"
2024-05-28_13-25-58.053456,"62.51,78.78"
2024-05-28_13-25-58.086192,"82.71,41.42"
2024-05-28_13-25-58.118889,"82.99,46.14"
2024-05-28_13-25-58.147621,"69.73,71.98"
2024-05-28_13-25-58.180392,"55.15,75.22"
2024-05-28_13-25-58.213144,"57.37,67.42"
2024-05-28_13-25-58.245918,"65.96,71.79"
2024-05-28_13-25-58.278682,"60.86,71.30"
2024-05-28_13-25-58.311466,"66.20,93.52"
2024-05-28_13-25-58.344177,"83.89,77.71"
2024-05-28_13-25-58.372907,"72.13,46.70"
2024-05-28_13-25-58.405665,"60.57,74.71"
2024-05-28_13-25-58.438518,"77.05,69.01"
2024-05-28_13-25-58.471212,"55.84,78.02"
2024-05-28_13-25-58.503921,"52.77,71.78"
2024-05-28_13-25-58.536692,"58.12,65.78"
2024-05-28_13-25-58.569586,"62.05,73.21"
2024-05-28_13-25-58.598190,"52.69,70.71"
2024-05-28_13-25-58.630933,"79.92,84.56"
2024-05-28_13-25-58.663674,"75.18,61.52"
2024-05-28_13-25-58.696559,"88.21,48.47"
2024-05-28_13-25-58.729209,"83.38,53.80"
2024-05-28_13-25-58.761990,"58.54,62.39"
2024-05-28_13-25-58.794687,"54.88,66.41"
2024-05-28_13-25-58.823467,"53.33,71.15"
2024-05-28_13-25-58.856184,"67.61,67.88"
2024-05-28_13-25-58.888975,"49.30,73.24"
2024-05-28_13-25-58.921724,"68.24,84.82"
2024-05-28_13-25-58.954531,"76.32,69.52"
2024-05-28_13-25-58.987298,"78.21,40.17"
2024-05-28_13-25-59.019970,"93.31,49.96"
2024-05-28_13-25-59.048708,"59.69,62.71"
2024-05-28_13-25-59.081618,"51.66,73.56"
2024-05-28_13-25-59.114246,"58.20,65.71"
2024-05-28_13-25-59.147040,"54.26,71.22"
2024-05-28_13-25-59.179790,"74.45,69.42"
2024-05-28_13-25-59.212513,"49.67,91.96"
2024-05-28_13-25-59.245232,"97.77,80.20"
2024-05-28_13-25-59.273964,"67.24,70.53"
2024-05-28_13-25-59.306728,"85.13,58.04"
2024-05-28_13-25-59.339501,"77.11,62.65"
2024-05-28_13-25-59.372275,"64.22,49.84"
2024-05-28_13-25-59.405028,"50.50,73.87"
2024-05-28_13-25-59.437840,"62.22,68.20"
2024-05-28_13-25-59.470542,"73.02,72.50"
2024-05-28_13-25-59.499290,"53.95,80.07"
2024-05-28_13-25-59.532026,"69.09,73.88"
2024-05-28_13-25-59.564771,"75.36,77.17"
2024-05-28_13-25-59.597575,"80.86,67.87"
2024-05-28_13-25-59.630355,"86.88,39.94"
2024-05-28_13-25-59.663073,"86.40,61.26"
2024-05-28_13-25-59.695788,"52.42,65.13"
2024-05-28_13-25-59.724564,"52.08,70.85"
2024-05-28_13-25-59.757360,"60.47,65.61"
2024-05-28_13-25-59.790055,"68.56,79.08"
2024-05-28_13-25-59.822886,"50.13,74.49"
2024-05-28_13-25-59.855743,"87.31,70.81"
2024-05-28_13-25-59.888374,"73.46,75.31"
2024-05-28_13-25-59.921067,"87.01,49.12"
2024-05-28_13-25-59.949793,"77.66,39.28"
2024-05-28_13-25-59.982600,"63.72,61.61"
2024-05-28_13-26-00.015346,"60.42,65.92"
2024-05-28_13-26-00.048119,"47.33,69.76"
2024-05-28_13-26-00.080868,"68.85,77.32"
2024-05-28_13-26-00.113653,"54.53,72.01"
2024-05-28_13-26-00.146359,"68.74,78.94"
2024-05-28_13-26-00.175072,"84.49,64.60"
2024-05-28_13-26-00.207840,"85.10,62.50"
2024-05-28_13-26-00.240626,"89.29,40.95"
2024-05-28_13-26-00.273400,"58.95,61.53"
2024-05-28_13-26-00.306137,"52.02,73.28"
2024-05-28_13-26-00.338970,"59.32,64.83"
2024-05-28_13-26-00.371611,"67.64,76.82"
2024-05-28_13-26-00.400432,"54.75,73.58"
2024-05-28_13-26-00.433125,"69.68,81.30"
2024-05-28_13-26-00.465856,"93.32,68.73"
2024-05-28_13-26-00.498629,"79.80,71.13"
2024-05-28_13-26-00.531419,"89.01,40.93"
2024-05-28_13-26-00.564308,"73.46,53.12"
2024-05-28_13-26-00.596885,"66.98,66.52"
2024-05-28_13-26-00.629568,"44.50,70.31"
2024-05-28_13-26-00.658399,"59.90,75.62"
2024-05-28_13-26-00.691157,"70.39,69.38"
2024-05-28_13-26-00.723954,"49.54,75.20"
2024-05-28_13-26-00.756713,"91.35,73.99"
2024-05-28_13-26-00.789530,"74.77,80.31"
2024-05-28_13-26-00.822194,"80.98,40.66"
2024-05-28_13-26-00.854859,"88.35,42.33"
2024-05-28_13-26-00.883650,"74.92,61.80"
2024-05-28_13-26-00.916420,"53.69,64.99"
2024-05-28_13-26-00.949190,"54.38,75.42"
2024-05-28_13-26-00.981969,"67.71,72.61"
2024-05-28_13-26-01.014756,"59.00,68.42"
2024-05-28_13-26-01.047541,"57.02,80.84"
2024-05-28_13-26-01.080170,"77.07,69.33"
2024-05-28_13-26-01.108931,"68.77,77.88"
2024-05-28_13-26-01.141722,"85.05,41.41"
2024-05-28_13-26-01.174528,"83.26,65.37"
2024-05-28_13-26-01.207222,"60.09,56.27"
2024-05-28_13-26-01.240008,"56.64,75.23"
2024-05-28_13-26-01.272774,"57.07,67.66"
2024-05-28_13-26-01.305485,"62.99,72.33"
2024-05-28_13-26-01.334202,"58.34,71.36"
2024-05-28_13-26-01.366985,"78.54,84.31"
2024-05-28_13-26-01.399762,"78.63,76.42"
2024-05-28_13-26-01.432531,"79.00,45.42"
2024-05-28_13-26-01.465253,"57.87,76.79"
2024-05-28_13-26-01.498068,"61.12,61.80"
2024-05-28_13-26-01.530705,"51.59,76.36"
2024-05-28_13-26-01.559593,"52.90,71.87"
2024-05-28_13-26-01.592315,"67.80,66.60"
2024-05-28_13-26-01.625037,"57.37,74.38"
2024-05-28_13-26-01.657800,"69.07,78.70"
2024-05-28_13-26-01.690539,"80.30,74.53"
2024-05-28_13-26-01.723286,"76.16,61.15"
2024-05-28_13-26-01.755967,"94.49,47.56"
2024-05-28_13-26-01.784707,"65.57,55.91"
2024-05-28_13-26-01.817543,"51.15,75.62"
2024-05-28_13-26-01.850284,"56.05,66.75"
2024-05-28_13-26-01.883049,"53.54,70.99"
2024-05-28_13-26-01.915798,"75.39,68.35"
2024-05-28_13-26-01.948592,"50.75,85.99"
2024-05-28_13-26-01.981276,"94.58,73.56"
2024-05-28_13-26-02.009989,"61.73,68.00"
2024-05-28_13-26-02.042780,"82.29,39.68"
2024-05-28_13-26-02.075552,"87.66,63.78"
2024-05-28_13-26-02.108332,"67.02,50.99"
2024-05-28_13-26-02.141104,"51.60,72.03"
2024-05-28_13-26-02.173880,"58.35,65.94"
2024-05-28_13-26-02.206539,"53.57,71.43"
2024-05-28_13-26-02.235255,"61.91,70.23"
2024-05-28_13-26-02.268012,"81.49,83.82"
2024-05-28_13-26-02.300813,"75.67,78.10"
2024-05-28_13-26-02.333557,"75.74,49.63"
2024-05-28_13-26-02.366441,"93.83,35.23"
2024-05-28_13-26-02.399192,"77.35,62.01"
2024-05-28_13-26-02.431878,"50.84,64.60"
2024-05-28_13-26-02.460548,"52.32,73.22"
2024-05-28_13-26-02.493351,"85.12,68.77"
2024-05-28_13-26-02.526133,"57.32,73.40"
2024-05-28_13-26-02.558917,"51.34,81.37"
2024-05-28_13-26-02.591739,"93.19,73.39"
2024-05-28_13-26-02.624465,"74.15,75.42"
2024-05-28_13-26-02.657156,"91.13,49.14"
2024-05-28_13-26-02.685921,"80.67,63.45"
2024-05-28_13-26-02.718631,"65.07,60.69"
2024-05-28_13-26-02.751370,"53.97,65.04"
2024-05-28_13-26-02.784224,"53.67,70.63"
2024-05-28_13-26-02.816906,"70.16,67.19"
2024-05-28_13-26-02.849711,"54.85,80.55"
2024-05-28_13-26-02.882503,"52.76,82.88"
2024-05-28_13-26-02.911368,"81.82,64.35"
2024-05-28_13-26-02.943972,"80.11,73.86"
2024-05-28_13-26-02.977093,"95.85,47.44"
2024-05-28_13-26-03.012204,"57.75,59.76"
2024-05-28_13-26-03.042232,"50.82,74.42"
2024-05-28_13-26-03.074975,"62.11,66.32"
2024-05-28_13-26-03.107657,"64.49,69.79"
2024-05-28_13-26-03.136393,"61.30,78.00"
2024-05-28_13-26-03.169202,"50.48,82.95"
2024-05-28_13-26-03.201910,"86.40,80.49"
2024-05-28_13-26-03.234682,"71.28,70.24"
2024-05-28_13-26-03.267521,"94.66,61.15"
2024-05-28_13-26-03.300257,"73.89,53.57"
2024-05-28_13-26-03.332930,"45.69,64.98"
2024-05-28_13-26-03.365686,"54.03,71.58"
2024-05-28_13-26-03.394414,"60.28,65.45"
2024-05-28_13-26-03.427317,"70.60,77.67"
2024-05-28_13-26-03.459963,"74.98,88.71"
2024-05-28_13-26-03.492780,"74.55,65.29"
2024-05-28_13-26-03.525619,"73.25,75.92"
2024-05-28_13-26-03.558202,"87.77,67.48"
2024-05-28_13-26-03.590921,"75.39,39.33"
2024-05-28_13-26-03.619733,"76.47,74.12"
2024-05-28_13-26-03.652491,"57.71,66.17"
2024-05-28_13-26-03.685246,"46.11,69.35"
2024-05-28_13-26-03.718049,"58.80,76.04"
2024-05-28_13-26-03.750763,"58.61,70.22"
2024-05-28_13-26-03.783524,"51.82,75.33"
2024-05-28_13-26-03.816213,"96.11,75.09"
2024-05-28_13-26-03.844935,"79.69,78.17"
2024-05-28_13-26-03.877739,"84.79,40.49"
2024-05-28_13-26-03.910547,"79.68,61.14"
2024-05-28_13-26-03.943244,"68.00,59.10"
2024-05-28_13-26-03.976011,"57.81,65.17"
2024-05-28_13-26-04.008765,"54.62,75.27"
2024-05-28_13-26-04.041572,"62.83,72.67"
2024-05-28_13-26-04.070244,"53.45,69.46"
2024-05-28_13-26-04.102990,"62.10,85.94"
2024-05-28_13-26-04.135735,"86.43,64.04"
2024-05-28_13-26-04.168544,"74.78,62.77"
2024-05-28_13-26-04.201294,"87.19,41.26"
2024-05-28_13-26-04.234042,"80.49,67.12"
2024-05-28_13-26-04.266797,"52.28,56.69"
2024-05-28_13-26-04.295560,"57.69,75.11"
2024-05-28_13-26-04.328253,"54.42,67.39"
2024-05-28_13-26-04.361059,"60.66,72.20"
2024-05-28_13-26-04.393808,"55.56,71.81"
2024-05-28_13-26-04.426587,"78.94,84.40"
2024-05-28_13-26-04.459336,"77.13,60.64"
2024-05-28_13-26-04.492056,"66.01,66.00"
2024-05-28_13-26-04.520795,"73.49,76.27"
2024-05-28_13-26-04.553639,"68.48,48.31"
2024-05-28_13-26-04.586283,"53.65,76.06"
2024-05-28_13-26-04.619082,"52.73,71.63"
2024-05-28_13-26-04.651864,"66.02,67.05"
2024-05-28_13-26-04.684572,"55.99,74.13"
2024-05-28_13-26-04.717269,"69.19,76.86"
2024-05-28_13-26-04.746050,"79.42,74.09"
2024-05-28_13-26-04.778817,"76.57,60.89"
2024-05-28_13-26-04.811551,"91.99,47.77"
2024-05-28_13-26-04.844354,"66.78,46.81"
2024-05-28_13-26-04.877161,"64.10,77.01"
2024-05-28_13-26-04.909886,"56.40,66.16"
2024-05-28_13-26-04.942564,"54.01,71.09"
2024-05-28_13-26-04.971303,"78.27,67.69"
2024-05-28_13-26-05.004084,"48.56,73.65"
2024-05-28_13-26-05.036840,"90.01,85.37"
2024-05-28_13-26-05.069617,"60.08,69.68"
2024-05-28_13-26-05.102404,"79.61,39.50"
2024-05-28_13-26-05.135172,"94.84,53.57"
2024-05-28_13-26-05.167848,"76.76,55.01"
2024-05-28_13-26-05.196578,"51.64,72.67"
2024-05-28_13-26-05.229341,"57.37,65.71"
2024-05-28_13-26-05.262128,"53.82,71.17"
2024-05-28_13-26-05.294904,"62.79,69.90"
2024-05-28_13-26-05.327677,"52.35,84.33"
2024-05-28_13-26-05.360414,"90.62,75.51"
2024-05-28_13-26-05.393219,"72.09,67.19"
2024-05-28_13-26-05.421876,"89.43,57.67"
2024-05-28_13-26-05.454647,"81.67,77.58"
2024-05-28_13-26-05.487428,"52.14,63.64"
2024-05-28_13-26-05.520151,"51.54,75.40"
2024-05-28_13-26-05.552915,"60.30,65.56"
2024-05-28_13-26-05.585684,"66.75,72.27"
2024-05-28_13-26-05.618444,"51.47,80.51"
2024-05-28_13-26-05.651127,"86.23,71.38"
2024-05-28_13-26-05.679936,"73.88,76.36"
2024-05-28_13-26-05.712688,"84.26,67.08"
2024-05-28_13-26-05.745446,"77.92,39.48"
2024-05-28_13-26-05.778208,"77.26,66.00"
2024-05-28_13-26-05.810993,"51.21,64.61"
2024-05-28_13-26-05.843759,"52.55,70.58"
2024-05-28_13-26-05.876399,"74.20,66.93"
2024-05-28_13-26-05.905302,"57.42,79.84"
2024-05-28_13-26-05.937977,"51.69,73.60"
2024-05-28_13-26-05.970735,"91.76,75.14"
2024-05-28_13-26-06.003499,"76.44,74.25"
2024-05-28_13-26-06.036260,"90.40,48.28"
2024-05-28_13-26-06.068998,"78.46,62.47"
2024-05-28_13-26-06.101644,"67.07,60.84"
2024-05-28_13-26-06.130497,"58.93,65.93"
2024-05-28_13-26-06.163261,"47.09,69.46"
2024-05-28_13-26-06.196036,"70.19,77.99"
2024-05-28_13-26-06.228773,"56.05,71.37"
2024-05-28_13-26-06.261563,"69.28,83.07"
2024-05-28_13-26-06.294344,"85.24,64.08"
2024-05-28_13-26-06.326948,"83.06,62.46"
2024-05-28_13-26-06.355752,"87.59,41.06"
2024-05-28_13-26-06.388547,"76.55,65.27"
2024-05-28_13-26-06.421616,"62.91,60.03"
2024-05-28_13-26-06.459192,"59.31,64.51"
2024-05-28_13-26-06.487121,"56.48,76.00"
2024-05-28_13-26-06.519514,"61.14,74.26"
2024-05-28_13-26-06.552276,"68.86,74.82"
2024-05-28_13-26-06.581023,"89.97,78.10"
2024-05-28_13-26-06.613787,"78.62,69.45"
2024-05-28_13-26-06.646837,"77.65,61.80"
2024-05-28_13-26-06.679311,"89.63,41.88"
2024-05-28_13-26-06.712088,"65.60,46.91"
2024-05-28_13-26-06.744792,"41.47,71.04"
2024-05-28_13-26-06.777525,"58.79,74.88"
2024-05-28_13-26-06.806319,"73.17,68.50"
2024-05-28_13-26-06.839047,"58.99,72.84"
2024-05-28_13-26-06.871819,"56.33,70.43"
2024-05-28_13-26-06.904605,"82.94,87.17"
2024-05-28_13-26-06.937331,"76.33,60.61"
2024-05-28_13-26-06.970072,"82.10,44.75"
2024-05-28_13-26-07.002760,"89.08,56.87"
2024-05-28_13-26-07.031574,"70.31,47.46"
2024-05-28_13-26-07.064972,"52.10,75.28"
2024-05-28_13-26-07.106721,"53.22,71.63"
2024-05-28_13-26-07.130126,"65.99,67.23"
2024-05-28_13-26-07.163731,"54.02,74.22"
2024-05-28_13-26-07.195565,"68.80,73.07"
2024-05-28_13-26-07.228030,"76.09,78.29"
2024-05-28_13-26-07.256869,"79.03,41.85"
2024-05-28_13-26-07.289642,"96.79,46.85"
2024-05-28_13-26-07.322441,"66.17,34.20"
2024-05-28_13-26-07.355164,"51.83,75.31"
2024-05-28_13-26-07.387912,"55.64,66.15"
2024-05-28_13-26-07.420626,"53.65,70.96"
2024-05-28_13-26-07.453355,"74.82,69.76"
2024-05-28_13-26-07.482129,"49.70,86.28"
2024-05-28_13-26-07.514899,"81.75,87.14"
2024-05-28_13-26-07.547630,"57.45,70.47"
2024-05-28_13-26-07.580423,"72.92,61.02"
2024-05-28_13-26-07.613187,"74.79,47.04"
2024-05-28_13-26-07.645894,"65.43,52.25"
2024-05-28_13-26-07.678598,"49.60,71.83"
2024-05-28_13-26-07.707515,"58.15,65.39"
2024-05-28_13-26-07.740066,"68.81,72.45"
2024-05-28_13-26-07.772904,"60.32,69.33"
2024-05-28_13-26-07.805671,"79.17,82.34"
2024-05-28_13-26-07.838427,"75.21,77.64"
2024-05-28_13-26-07.871183,"76.19,66.17"
2024-05-28_13-26-07.903885,"92.79,35.06"
2024-05-28_13-26-07.932615,"76.43,65.10"
2024-05-28_13-26-07.965412,"51.39,64.54"
2024-05-28_13-26-07.998181,"52.46,70.99"
2024-05-28_13-26-08.030972,"61.13,66.27"
2024-05-28_13-26-08.063703,"59.93,72.89"
2024-05-28_13-26-08.096481,"52.22,81.00"
2024-05-28_13-26-08.129197,"88.80,75.66"
2024-05-28_13-26-08.157934,"75.82,75.42"
2024-05-28_13-26-08.190703,"91.49,48.14"
2024-05-28_13-26-08.223467,"81.45,58.65"
2024-05-28_13-26-08.256289,"69.79,60.87"
2024-05-28_13-26-08.289028,"54.93,65.22"
2024-05-28_13-26-08.324557,"53.96,70.55"
2024-05-28_13-26-08.354610,"68.18,68.50"
2024-05-28_13-26-08.383219,"52.03,80.38"
2024-05-28_13-26-08.415996,"69.24,78.41"
2024-05-28_13-26-08.448730,"80.38,69.89"
2024-05-28_13-26-08.481501,"78.82,58.63"
2024-05-28_13-26-08.514271,"95.77,47.13"
2024-05-28_13-26-08.547018,"44.08,63.94"
2024-05-28_13-26-08.579809,"52.69,75.26"
2024-05-28_13-26-08.608517,"61.22,65.29"
2024-05-28_13-26-08.641272,"65.65,70.94"
2024-05-28_13-26-08.674017,"65.94,78.48"
2024-05-28_13-26-08.706781,"49.67,70.57"
2024-05-28_13-26-08.739524,"89.49,78.15"
2024-05-28_13-26-08.772308,"72.73,71.64"
2024-05-28_13-26-08.804989,"88.32,41.88"
2024-05-28_13-26-08.833697,"89.45,59.33"
2024-05-28_13-26-08.866611,"69.35,46.52"
2024-05-28_13-26-08.899300,"51.91,71.69"
2024-05-28_13-26-08.932014,"60.38,66.14"
2024-05-28_13-26-08.964795,"63.98,77.88"
2024-05-28_13-26-08.997624,"50.45,73.72"
2024-05-28_13-26-09.030282,"54.58,73.65"
2024-05-28_13-26-09.062969,"90.95,70.41"
2024-05-28_13-26-09.091812,"79.37,68.31"
2024-05-28_13-26-09.124581,"89.81,60.93"
2024-05-28_13-26-09.157452,"73.01,60.03"
2024-05-28_13-26-09.190118,"51.78,66.12"
2024-05-28_13-26-09.222886,"45.17,69.53"
2024-05-28_13-26-09.255515,"59.28,76.99"
2024-05-28_13-26-09.288276,"70.85,70.03"
2024-05-28_13-26-09.317080,"49.75,73.54"
2024-05-28_13-26-09.349847,"79.58,74.31"
2024-05-28_13-26-09.382606,"72.38,80.69"
2024-05-28_13-26-09.415343,"80.23,61.27"
2024-05-28_13-26-09.448174,"73.72,43.44"
2024-05-28_13-26-09.480886,"84.19,58.93"
2024-05-28_13-26-09.513555,"54.08,64.65"
2024-05-28_13-26-09.542359,"56.65,76.03"
2024-05-28_13-26-09.575072,"88.95,77.49"
2024-05-28_13-26-09.607960,"56.15,67.70"
2024-05-28_13-26-09.640739,"57.97,79.56"
2024-05-28_13-26-09.673424,"76.87,71.38"
2024-05-28_13-26-09.706104,"65.52,77.79"
2024-05-28_13-26-09.738800,"84.25,42.16"
2024-05-28_13-26-09.767634,"84.81,68.19"
2024-05-28_13-26-09.800325,"56.28,56.07"
2024-05-28_13-26-09.833118,"57.95,74.87"
2024-05-28_13-26-09.865936,"58.44,67.82"
2024-05-28_13-26-09.898745,"64.74,71.83"
2024-05-28_13-26-09.931437,"57.91,69.51"
2024-05-28_13-26-09.964092,"79.22,83.63"
2024-05-28_13-26-09.992889,"80.61,77.11"
2024-05-28_13-26-10.025704,"74.89,46.57"
2024-05-28_13-26-10.058363,"88.85,39.05"
2024-05-28_13-26-10.091196,"65.51,58.18"
2024-05-28_13-26-10.124003,"49.49,76.53"
2024-05-28_13-26-10.156677,"53.19,71.59"
2024-05-28_13-26-10.189360,"72.08,66.94"
2024-05-28_13-26-10.218190,"58.96,73.63"
2024-05-28_13-26-10.251042,"52.45,78.68"
2024-05-28_13-26-10.283740,"82.52,85.97"
2024-05-28_13-26-10.316502,"76.79,76.42"
2024-05-28_13-26-10.349275,"91.87,47.39"
2024-05-28_13-26-10.381953,"68.96,58.41"
2024-05-28_13-26-10.414694,"59.09,62.16"
2024-05-28_13-26-10.443408,"53.70,65.63"
2024-05-28_13-26-10.476230,"54.15,70.84"
2024-05-28_13-26-10.508974,"66.54,68.62"
2024-05-28_13-26-10.541748,"48.87,71.77"
2024-05-28_13-26-10.574477,"77.81,82.34"
2024-05-28_13-26-10.607291,"55.07,75.32"
2024-05-28_13-26-10.640450,"79.49,60.05"
2024-05-28_13-26-10.668807,"93.71,50.67"
2024-05-28_13-26-10.701472,"59.92,62.19"
2024-05-28_13-26-10.734233,"50.75,73.02"
2024-05-28_13-26-10.767004,"57.54,64.94"
2024-05-28_13-26-10.799787,"53.06,72.34"
2024-05-28_13-26-10.832490,"72.00,68.37"
2024-05-28_13-26-10.865253,"50.51,88.20"
2024-05-28_13-26-10.893964,"93.86,71.32"
2024-05-28_13-26-10.926752,"67.57,68.58"
2024-05-28_13-26-10.959502,"86.60,35.59"
2024-05-28_13-26-10.992269,"78.76,55.78"
2024-05-28_13-26-11.025025,"69.84,64.96"
2024-05-28_13-26-11.057782,"51.76,71.48"
2024-05-28_13-26-11.090511,"59.35,65.89"
2024-05-28_13-26-11.119211,"72.07,72.08"
2024-05-28_13-26-11.152007,"52.75,80.02"
2024-05-28_13-26-11.184892,"77.84,74.02"
2024-05-28_13-26-11.217552,"74.85,77.20"
2024-05-28_13-26-11.250311,"81.02,66.87"
2024-05-28_13-26-11.283239,"89.64,39.53"
2024-05-28_13-26-11.315822,"88.81,59.91"
2024-05-28_13-26-11.344487,"49.69,64.37"
2024-05-28_13-26-11.377241,"51.92,70.53"
2024-05-28_13-26-11.410090,"60.08,67.35"
2024-05-28_13-26-11.442773,"62.02,78.98"
2024-05-28_13-26-11.475530,"50.69,74.73"
2024-05-28_13-26-11.508328,"85.96,70.73"
2024-05-28_13-26-11.541327,"72.73,75.12"
2024-05-28_13-26-11.569814,"77.85,77.19"
2024-05-28_13-26-11.602540,"62.44,49.18"
2024-05-28_13-26-11.635300,"62.72,73.72"
2024-05-28_13-26-11.668039,"57.99,65.06"
2024-05-28_13-26-11.700899,"47.66,70.26"
2024-05-28_13-26-11.733733,"74.64,77.34"
2024-05-28_13-26-11.766380,"54.42,70.26"
2024-05-28_13-26-11.795161,"52.91,81.19"
2024-05-28_13-26-11.827946,"86.53,64.46"
2024-05-28_13-26-11.860612,"82.53,77.24"
2024-05-28_13-26-11.893401,"87.91,40.87"
2024-05-28_13-26-11.926118,"59.54,62.49"
2024-05-28_13-26-11.958883,"66.42,73.49"
2024-05-28_13-26-11.991592,"59.10,65.38"
2024-05-28_13-26-12.024302,"69.94,77.40"
2024-05-28_13-26-12.053067,"53.58,73.27"
2024-05-28_13-26-12.085827,"53.64,81.64"
2024-05-28_13-26-12.118672,"84.53,81.24"
2024-05-28_13-26-12.151360,"77.20,70.12"
2024-05-28_13-26-12.184201,"86.66,61.19"
2024-05-28_13-26-12.216882,"74.21,52.29"
2024-05-28_13-26-12.249645,"67.77,66.65"
2024-05-28_13-26-12.278332,"44.71,69.74"
2024-05-28_13-26-12.311106,"61.01,76.52"
2024-05-28_13-26-12.344927,"74.35,69.60"
2024-05-28_13-26-12.376691,"49.98,73.46"
2024-05-28_13-26-12.409456,"82.52,74.88"
2024-05-28_13-26-12.442153,"73.03,81.76"
2024-05-28_13-26-12.474857,"79.24,61.28"
2024-05-28_13-26-12.503613,"84.62,43.39"
2024-05-28_13-26-12.536393,"83.66,58.10"
2024-05-28_13-26-12.569157,"52.91,65.77"
2024-05-28_13-26-12.601998,"54.77,77.65"
2024-05-28_13-26-12.634692,"53.63,72.47"
2024-05-28_13-26-12.667469,"71.97,67.65"
2024-05-28_13-26-12.700097,"55.64,75.38"
2024-05-28_13-26-12.728968,"96.71,71.96"
2024-05-28_13-26-12.761702,"59.80,79.62"
2024-05-28_13-26-12.794435,"80.44,62.00"
2024-05-28_13-26-12.827262,"79.87,46.69"
2024-05-28_13-26-12.860067,"69.43,57.70"
2024-05-28_13-26-12.892725,"54.77,74.94"
2024-05-28_13-26-12.925435,"58.47,67.29"
2024-05-28_13-26-12.954183,"51.86,71.40"
2024-05-28_13-26-12.986933,"63.67,68.82"
2024-05-28_13-26-13.019721,"69.16,81.62"
2024-05-28_13-26-13.052489,"76.73,79.40"
2024-05-28_13-26-13.085257,"66.90,65.80"
2024-05-28_13-26-13.117981,"84.69,39.83"
2024-05-28_13-26-13.150658,"82.03,63.40"
2024-05-28_13-26-13.179453,"50.93,62.47"
2024-05-28_13-26-13.212212,"52.57,71.40"
2024-05-28_13-26-13.245002,"59.92,66.85"
2024-05-28_13-26-13.277772,"64.16,71.86"
2024-05-28_13-26-13.310514,"53.64,69.73"
2024-05-28_13-26-13.343230,"82.57,81.04"
2024-05-28_13-26-13.376019,"73.46,76.46"
2024-05-28_13-26-13.404718,"81.73,48.75"
2024-05-28_13-26-13.437503,"73.50,35.36"
2024-05-28_13-26-13.470237,"63.90,77.65"
2024-05-28_13-26-13.503003,"50.51,65.03"
2024-05-28_13-26-13.535801,"54.61,71.31"
2024-05-28_13-26-13.568597,"73.82,67.73"
2024-05-28_13-26-13.601289,"76.95,74.79"
2024-05-28_13-26-13.630020,"64.66,78.59"
2024-05-28_13-26-13.662791,"81.67,64.08"
2024-05-28_13-26-13.695553,"75.66,75.56"
2024-05-28_13-26-13.728327,"97.45,48.50"
2024-05-28_13-26-13.761068,"77.85,60.95"
2024-05-28_13-26-13.793814,"60.11,60.25"
2024-05-28_13-26-13.826495,"56.48,64.73"
2024-05-28_13-26-13.855250,"54.07,72.12"
2024-05-28_13-26-13.888117,"76.22,67.09"
2024-05-28_13-26-13.920837,"49.43,79.19"
2024-05-28_13-26-13.954562,"89.14,79.71"
2024-05-28_13-26-13.986372,"66.44,70.65"
2024-05-28_13-26-14.019110,"84.85,57.88"
2024-05-28_13-26-14.051812,"89.44,56.23"
2024-05-28_13-26-14.080519,"65.33,51.80"
2024-05-28_13-26-14.113338,"51.63,72.25"
2024-05-28_13-26-14.146115,"61.13,65.66"
2024-05-28_13-26-14.178835,"61.34,71.38"
2024-05-28_13-26-14.211592,"55.19,79.05"
2024-05-28_13-26-14.244360,"51.70,75.97"
2024-05-28_13-26-14.277067,"79.28,75.91"
2024-05-28_13-26-14.305840,"75.46,67.48"
2024-05-28_13-26-14.338660,"96.41,60.71"
2024-05-28_13-26-14.371395,"70.11,67.91"
2024-05-28_13-26-14.404172,"46.76,64.27"
2024-05-28_13-26-14.436920,"51.83,70.78"
2024-05-28_13-26-14.469647,"60.43,66.70"
2024-05-28_13-26-14.502343,"69.49,78.66"
2024-05-28_13-26-14.531104,"49.91,74.14"
2024-05-28_13-26-14.563867,"74.79,73.07"
2024-05-28_13-26-14.596791,"71.96,74.27"
2024-05-28_13-26-14.629444,"78.59,79.00"
2024-05-28_13-26-14.662190,"49.22,68.63"
2024-05-28_13-26-14.695028,"73.59,64.26"
2024-05-28_13-26-14.727645,"57.22,65.01"
2024-05-28_13-26-14.760325,"47.58,70.19"
2024-05-28_13-26-14.789137,"74.57,77.04"
2024-05-28_13-26-14.821865,"55.78,70.43"
2024-05-28_13-26-14.854670,"51.88,73.60"
2024-05-28_13-26-14.887454,"85.26,76.18"
2024-05-28_13-26-14.920229,"79.14,77.64"
2024-05-28_13-26-14.952907,"86.15,40.61"
2024-05-28_13-26-14.985633,"64.55,60.65"
2024-05-28_13-26-15.014475,"70.53,58.50"
2024-05-28_13-26-15.047183,"57.56,65.05"
2024-05-28_13-26-15.080313,"56.59,76.54"
2024-05-28_13-26-15.112830,"61.62,72.74"
2024-05-28_13-26-15.145635,"53.56,69.57"
2024-05-28_13-26-15.178240,"80.95,77.86"
2024-05-28_13-26-15.210882,"79.10,68.94"
2024-05-28_13-26-15.239690,"79.40,61.49"
2024-05-28_13-26-15.272446,"91.05,64.67"
2024-05-28_13-26-15.305222,"66.40,46.96"
2024-05-28_13-26-15.338044,"42.48,70.34"
2024-05-28_13-26-15.370751,"60.20,75.32"
2024-05-28_13-26-15.403443,"67.93,68.44"
2024-05-28_13-26-15.436204,"55.45,72.67"
2024-05-28_13-26-15.464931,"57.01,81.14"
2024-05-28_13-26-15.497720,"91.82,74.09"
2024-05-28_13-26-15.530462,"76.74,60.76"
2024-05-28_13-26-15.563305,"90.73,44.06"
2024-05-28_13-26-15.596097,"71.49,38.45"
2024-05-28_13-26-15.628756,"51.11,65.44"
2024-05-28_13-26-15.661483,"54.55,76.27"
2024-05-28_13-26-15.690227,"80.44,76.91"
2024-05-28_13-26-15.722939,"65.53,66.89"
2024-05-28_13-26-15.755765,"54.94,76.17"
2024-05-28_13-26-15.788513,"87.09,74.84"
2024-05-28_13-26-15.821305,"60.27,79.74"
2024-05-28_13-26-15.854069,"81.60,41.58"
2024-05-28_13-26-15.886714,"82.15,46.28"
2024-05-28_13-26-15.915541,"67.84,59.56"
2024-05-28_13-26-15.948518,"55.21,75.10"
2024-05-28_13-26-15.981063,"58.59,67.62"
2024-05-28_13-26-16.013852,"68.05,71.46"
2024-05-28_13-26-16.046556,"61.41,69.01"
2024-05-28_13-26-16.079305,"67.73,82.51"
2024-05-28_13-26-16.111997,"87.43,78.72"
2024-05-28_13-26-16.140744,"68.35,65.61"
2024-05-28_13-26-16.173568,"86.07,39.63"
2024-05-28_13-26-16.206305,"81.58,62.87"
2024-05-28_13-26-16.239056,"52.78,62.67"
2024-05-28_13-26-16.271817,"52.17,71.46"
2024-05-28_13-26-16.304595,"60.81,66.76"
2024-05-28_13-26-16.337303,"64.91,71.94"
2024-05-28_13-26-16.366012,"53.93,69.77"
2024-05-28_13-26-16.398792,"81.93,82.56"
2024-05-28_13-26-16.431590,"73.01,76.58"
2024-05-28_13-26-16.464312,"83.21,48.51"
2024-05-28_13-26-16.497083,"73.93,35.29"
2024-05-28_13-26-16.529882,"63.51,62.61"
2024-05-28_13-26-16.562559,"52.15,64.96"
2024-05-28_13-26-16.591338,"54.14,71.11"
2024-05-28_13-26-16.624155,"73.75,66.97"
2024-05-28_13-26-16.656856,"56.55,71.06"
2024-05-28_13-26-16.689629,"74.56,84.95"
2024-05-28_13-26-16.722374,"75.05,63.26"
2024-05-28_13-26-16.755161,"74.80,76.17"
2024-05-28_13-26-16.787927,"91.93,49.23"
2024-05-28_13-26-16.816600,"80.36,69.95"
2024-05-28_13-26-16.849687,"66.34,60.45"
2024-05-28_13-26-16.882152,"55.96,64.83"
2024-05-28_13-26-16.914897,"52.32,71.76"
2024-05-28_13-26-16.947688,"66.84,66.79"
2024-05-28_13-26-16.980462,"52.62,79.94"
2024-05-28_13-26-17.013145,"53.03,78.91"
2024-05-28_13-26-17.041879,"81.48,65.09"
2024-05-28_13-26-17.074607,"80.67,73.94"
2024-05-28_13-26-17.107379,"96.40,47.50"
2024-05-28_13-26-17.140206,"58.51,41.91"
2024-05-28_13-26-17.172994,"52.51,73.16"
2024-05-28_13-26-17.205702,"60.81,65.11"
2024-05-28_13-26-17.238414,"62.18,71.52"
2024-05-28_13-26-17.267122,"56.48,78.20"
2024-05-28_13-26-17.299848,"51.04,81.62"
2024-05-28_13-26-17.332679,"84.31,68.07"
2024-05-28_13-26-17.365416,"72.24,68.84"
2024-05-28_13-26-17.398250,"93.41,61.22"
2024-05-28_13-26-17.431007,"74.14,51.37"
2024-05-28_13-26-17.463701,"63.19,64.58"
2024-05-28_13-26-17.492419,"52.02,71.15"
2024-05-28_13-26-17.525158,"59.34,66.25"
2024-05-28_13-26-17.557946,"61.73,77.94"
2024-05-28_13-26-17.590770,"48.63,73.67"
2024-05-28_13-26-17.623552,"56.10,74.09"
2024-05-28_13-26-17.656306,"76.59,75.93"
2024-05-28_13-26-17.688930,"82.09,67.32"
2024-05-28_13-26-17.721721,"82.80,40.08"
2024-05-28_13-26-17.750439,"46.80,78.08"
2024-05-28_13-26-17.783212,"59.78,65.29"
2024-05-28_13-26-17.815988,"46.06,70.00"
2024-05-28_13-26-17.848816,"61.83,76.25"
2024-05-28_13-26-17.881478,"67.69,69.51"
2024-05-28_13-26-17.914204,"50.54,74.60"
2024-05-28_13-26-17.946945,"90.42,72.93"
2024-05-28_13-26-17.975765,"74.00,79.14"
2024-05-28_13-26-18.008488,"81.16,40.82"
2024-05-28_13-26-18.041272,"76.38,43.69"
2024-05-28_13-26-18.074016,"74.65,50.01"
2024-05-28_13-26-18.106798,"55.06,64.97"
2024-05-28_13-26-18.139583,"57.25,76.09"
2024-05-28_13-26-18.172221,"51.50,72.28"
2024-05-28_13-26-18.201006,"60.44,68.37"
2024-05-28_13-26-18.233820,"58.77,84.01"
2024-05-28_13-26-18.266534,"87.26,66.12"
2024-05-28_13-26-18.299404,"68.75,77.28"
2024-05-28_13-26-18.332073,"86.91,41.52"
2024-05-28_13-26-18.364822,"72.24,63.38"
2024-05-28_13-26-18.397561,"62.86,56.60"
2024-05-28_13-26-18.426374,"57.51,75.08"
2024-05-28_13-26-18.459051,"58.02,67.77"
2024-05-28_13-26-18.491811,"63.77,71.98"
2024-05-28_13-26-18.524628,"59.02,70.93"
2024-05-28_13-26-18.557355,"78.67,81.98"
2024-05-28_13-26-18.590074,"78.67,76.69"
2024-05-28_13-26-18.622765,"74.92,46.36"
2024-05-28_13-26-18.651547,"89.90,39.07"
2024-05-28_13-26-18.684431,"66.97,67.15"
2024-05-28_13-26-18.717135,"60.56,63.25"
2024-05-28_13-26-18.749846,"51.58,73.44"
2024-05-28_13-26-18.782641,"83.98,68.06"
2024-05-28_13-26-18.815339,"61.24,74.63"
2024-05-28_13-26-18.848021,"51.94,69.61"
2024-05-28_13-26-18.876793,"98.03,83.69"
2024-05-28_13-26-18.910025,"75.52,76.49"
2024-05-28_13-26-18.942354,"90.06,47.74"
2024-05-28_13-26-18.982302,"83.31,53.63"
2024-05-28_13-26-19.008772,"70.78,62.49"
2024-05-28_13-26-19.040698,"53.75,65.98"
2024-05-28_13-26-19.073293,"52.98,70.67"
2024-05-28_13-26-19.102106,"71.46,67.02"
2024-05-28_13-26-19.134841,"54.18,73.14"
2024-05-28_13-26-19.167646,"52.28,89.88"
2024-05-28_13-26-19.200386,"79.71,63.31"
2024-05-28_13-26-19.233138,"76.61,75.22"
2024-05-28_13-26-19.265887,"99.98,47.55"
2024-05-28_13-26-19.298633,"59.39,40.18"
2024-05-28_13-26-19.327382,"51.22,74.34"
2024-05-28_13-26-19.360129,"57.84,65.71"
2024-05-28_13-26-19.392859,"53.53,70.92"
2024-05-28_13-26-19.425638,"73.12,68.03"
2024-05-28_13-26-19.458477,"50.62,90.52"
2024-05-28_13-26-19.491179,"84.42,68.47"
2024-05-28_13-26-19.523871,"68.71,69.48"
2024-05-28_13-26-19.552654,"88.55,58.36"
2024-05-28_13-26-19.585694,"78.46,59.35"
2024-05-28_13-26-19.618154,"53.26,64.99"
2024-05-28_13-26-19.651025,"53.61,71.76"
2024-05-28_13-26-19.683775,"60.46,65.76"
2024-05-28_13-26-19.716490,"59.31,70.19"
2024-05-28_13-26-19.749140,"53.76,79.96"
2024-05-28_13-26-19.777878,"87.53,78.43"
2024-05-28_13-26-19.810697,"62.81,67.11"
2024-05-28_13-26-19.843501,"77.34,69.20"
2024-05-28_13-26-19.876238,"95.26,40.16"
2024-05-28_13-26-19.908998,"70.68,67.68"
2024-05-28_13-26-19.941807,"49.06,64.70"
2024-05-28_13-26-19.975789,"50.96,70.66"
2024-05-28_13-26-20.003189,"60.52,65.40"
2024-05-28_13-26-20.035988,"67.51,78.35"
2024-05-28_13-26-20.068744,"49.95,75.04"
2024-05-28_13-26-20.101492,"86.80,71.17"
2024-05-28_13-26-20.134346,"73.08,75.20"
2024-05-28_13-26-20.167045,"86.27,49.87"
2024-05-28_13-26-20.199672,"76.31,39.43"
2024-05-28_13-26-20.228528,"77.42,74.71"
2024-05-28_13-26-20.261218,"56.17,65.56"
2024-05-28_13-26-20.294025,"46.40,69.74"
2024-05-28_13-26-20.327607,"74.52,76.26"
2024-05-28_13-26-20.359626,"57.08,69.96"
2024-05-28_13-26-20.392302,"51.78,75.82"
2024-05-28_13-26-20.425011,"74.30,75.66"
2024-05-28_13-26-20.453755,"78.38,78.07"
2024-05-28_13-26-20.486447,"84.83,40.88"
2024-05-28_13-26-20.519248,"91.10,62.61"
2024-05-28_13-26-20.552125,"66.74,58.81"
2024-05-28_13-26-20.585130,"56.53,64.64"
2024-05-28_13-26-20.617638,"55.42,75.76"
2024-05-28_13-26-20.650265,"61.56,72.62"
2024-05-28_13-26-20.679029,"52.47,71.37"
2024-05-28_13-26-20.711848,"79.49,79.27"
2024-05-28_13-26-20.744520,"79.60,67.51"
2024-05-28_13-26-20.777331,"77.96,78.71"
2024-05-28_13-26-20.810067,"64.32,60.97"
2024-05-28_13-26-20.842918,"63.04,56.42"
2024-05-28_13-26-20.875564,"57.76,71.64"
2024-05-28_13-26-20.904285,"59.58,75.61"
2024-05-28_13-26-20.937073,"70.02,67.73"
2024-05-28_13-26-20.970049,"58.45,73.35"
2024-05-28_13-26-21.002575,"55.95,70.41"
2024-05-28_13-26-21.035664,"84.83,84.63"
2024-05-28_13-26-21.068170,"75.87,60.73"
2024-05-28_13-26-21.100823,"84.64,44.98"
2024-05-28_13-26-21.133608,"88.22,57.25"
2024-05-28_13-26-21.162583,"57.92,47.02"
2024-05-28_13-26-21.195462,"52.76,76.29"
2024-05-28_13-26-21.227895,"52.58,71.89"
2024-05-28_13-26-21.260679,"75.28,67.25"
2024-05-28_13-26-21.293429,"54.53,74.98"
2024-05-28_13-26-21.326132,"88.70,74.89"
2024-05-28_13-26-21.358824,"60.60,80.75"
2024-05-28_13-26-21.387566,"80.26,41.56"
2024-05-28_13-26-21.420460,"90.88,46.67"
2024-05-28_13-26-21.453239,"79.50,54.34"
2024-05-28_13-26-21.485859,"54.54,75.06"
2024-05-28_13-26-21.518749,"57.54,67.07"
2024-05-28_13-26-21.551545,"52.29,71.49"
2024-05-28_13-26-21.584105,"65.89,70.38"
2024-05-28_13-26-21.612987,"69.27,81.74"
2024-05-28_13-26-21.645881,"76.44,79.23"
2024-05-28_13-26-21.678700,"69.71,47.64"
2024-05-28_13-26-21.711233,"87.16,39.72"
2024-05-28_13-26-21.744002,"94.26,62.03"
2024-05-28_13-26-21.776811,"55.08,62.85"
2024-05-28_13-26-21.809357,"52.42,74.46"
2024-05-28_13-26-21.838115,"69.70,66.99"
2024-05-28_13-26-21.870904,"63.20,73.79"
2024-05-28_13-26-21.903645,"52.70,70.83"
2024-05-28_13-26-21.936470,"92.82,83.79"
2024-05-28_13-26-21.969214,"74.84,61.39"
2024-05-28_13-26-22.001916,"87.55,48.14"
2024-05-28_13-26-22.034646,"84.85,60.33"
2024-05-28_13-26-22.063408,"66.46,62.58"
2024-05-28_13-26-22.096845,"53.41,65.54"
2024-05-28_13-26-22.139397,"53.20,70.46"
2024-05-28_13-26-22.161856,"71.37,66.83"
2024-05-28_13-26-22.194500,"54.80,73.27"
2024-05-28_13-26-22.227224,"52.34,80.51"
2024-05-28_13-26-22.259931,"85.90,74.84"
2024-05-28_13-26-22.288799,"76.67,75.22"
2024-05-28_13-26-22.321507,"96.59,48.16"
2024-05-28_13-26-22.354196,"63.04,61.86"
2024-05-28_13-26-22.387025,"66.10,60.62"
2024-05-28_13-26-22.419752,"56.28,65.21"
2024-05-28_13-26-22.452480,"54.25,70.87"
2024-05-28_13-26-22.485258,"76.61,68.98"
2024-05-28_13-26-22.513944,"49.73,80.12"
2024-05-28_13-26-22.546704,"89.35,78.49"
2024-05-28_13-26-22.579646,"66.92,70.98"
2024-05-28_13-26-22.612341,"83.93,58.06"
2024-05-28_13-26-22.645277,"87.70,55.48"
2024-05-28_13-26-22.677838,"63.24,56.37"
2024-05-28_13-26-22.710486,"53.99,73.03"
2024-05-28_13-26-22.739259,"60.48,65.54"
2024-05-28_13-26-22.772000,"60.75,70.01"
2024-05-28_13-26-22.804769,"82.67,73.02"
2024-05-28_13-26-22.837518,"50.85,73.70"
2024-05-28_13-26-22.870286,"91.45,73.58"
2024-05-28_13-26-22.903076,"75.32,68.68"
2024-05-28_13-26-22.935741,"95.84,40.27"
2024-05-28_13-26-22.964500,"70.89,66.78"
2024-05-28_13-26-22.997252,"48.08,65.25"
2024-05-28_13-26-23.030058,"50.85,70.54"
2024-05-28_13-26-23.063105,"60.77,65.33"
2024-05-28_13-26-23.096032,"72.50,78.53"
2024-05-28_13-26-23.129340,"49.56,74.20"
2024-05-28_13-26-23.161251,"76.35,85.18"
2024-05-28_13-26-23.193753,"73.87,75.72"
2024-05-28_13-26-23.222569,"86.03,49.85"
2024-05-28_13-26-23.255332,"76.55,39.46"
2024-05-28_13-26-23.288089,"78.10,72.79"
2024-05-28_13-26-23.320930,"56.68,65.94"
2024-05-28_13-26-23.353792,"47.22,69.52"
2024-05-28_13-26-23.386299,"73.44,76.45"
2024-05-28_13-26-23.419055,"56.98,70.37"
2024-05-28_13-26-23.448237,"51.57,74.26"
2024-05-28_13-26-23.481053,"88.77,77.02"
2024-05-28_13-26-23.513403,"82.45,77.91"
2024-05-28_13-26-23.546172,"88.03,41.10"
2024-05-28_13-26-23.579006,"60.30,52.30"
2024-05-28_13-26-23.611580,"63.28,74.51"
2024-05-28_13-26-23.644360,"58.40,65.01"
2024-05-28_13-26-23.673101,"54.04,76.29"
2024-05-28_13-26-23.705929,"58.33,72.83"
2024-05-28_13-26-23.738630,"51.31,71.74"
2024-05-28_13-26-23.771411,"91.30,77.09"
2024-05-28_13-26-23.804205,"69.20,81.22"
2024-05-28_13-26-23.836874,"92.03,52.49"
2024-05-28_13-26-23.869571,"74.05,61.21"
2024-05-28_13-26-23.898396,"73.30,48.04"
2024-05-28_13-26-23.931182,"41.95,70.12"
2024-05-28_13-26-23.963974,"58.49,75.38"
2024-05-28_13-26-23.996655,"59.43,68.92"
2024-05-28_13-26-24.029425,"48.73,74.70"
2024-05-28_13-26-24.062166,"84.09,74.83"
2024-05-28_13-26-24.094893,"75.34,80.66"
2024-05-28_13-26-24.123893,"80.56,60.76"
2024-05-28_13-26-24.156474,"74.94,43.04"
2024-05-28_13-26-24.189368,"74.28,49.09"
2024-05-28_13-26-24.224175,"55.17,65.17"
2024-05-28_13-26-24.254926,"55.85,76.03"
2024-05-28_13-26-24.287434,"67.43,72.63"
2024-05-28_13-26-24.320147,"59.06,68.86"
2024-05-28_13-26-24.348902,"60.40,84.47"
2024-05-28_13-26-24.381651,"92.36,65.00"
2024-05-28_13-26-24.414422,"68.66,77.31"
2024-05-28_13-26-24.447412,"85.83,41.47"
2024-05-28_13-26-24.480037,"84.50,63.06"
2024-05-28_13-26-24.513107,"63.66,56.56"
2024-05-28_13-26-24.545627,"58.10,75.05"
2024-05-28_13-26-24.574770,"58.01,67.74"
2024-05-28_13-26-24.606996,"64.07,72.19"
2024-05-28_13-26-24.639779,"57.46,71.23"
2024-05-28_13-26-24.672503,"77.96,81.03"
2024-05-28_13-26-24.705306,"77.81,75.66"
2024-05-28_13-26-24.738062,"76.95,45.51"
2024-05-28_13-26-24.770706,"90.69,39.08"
2024-05-28_13-26-24.799587,"63.80,61.96"
2024-05-28_13-26-24.832307,"50.12,78.55"
2024-05-28_13-26-24.865051,"54.18,72.12"
2024-05-28_13-26-24.897843,"69.93,66.47"
2024-05-28_13-26-24.930589,"58.38,73.47"
2024-05-28_13-26-24.963333,"51.57,69.87"
2024-05-28_13-26-24.996004,"84.52,84.69"
2024-05-28_13-26-25.024728,"75.09,61.24"
2024-05-28_13-26-25.059038,"91.04,47.67"
2024-05-28_13-26-25.091039,"83.19,54.14"
2024-05-28_13-26-25.123195,"73.32,62.11"
2024-05-28_13-26-25.155806,"53.98,66.18"
2024-05-28_13-26-25.188553,"54.00,70.59"
2024-05-28_13-26-25.221291,"67.81,67.41"
2024-05-28_13-26-25.249990,"49.11,73.58"
2024-05-28_13-26-25.282806,"68.54,84.39"
2024-05-28_13-26-25.316667,"77.20,66.78"
2024-05-28_13-26-25.348631,"78.11,60.70"
2024-05-28_13-26-25.381147,"102.02,47.19"
2024-05-28_13-26-25.413838,"59.40,58.40"
2024-05-28_13-26-25.447649,"50.87,74.37"
2024-05-28_13-26-25.479298,"56.44,65.46"
2024-05-28_13-26-25.508130,"54.14,70.86"
2024-05-28_13-26-25.540848,"72.03,68.91"
2024-05-28_13-26-25.573600,"50.53,89.90"
2024-05-28_13-26-25.606374,"85.98,81.40"
2024-05-28_13-26-25.642937,"67.83,69.89"
2024-05-28_13-26-25.671848,"86.91,58.01"
2024-05-28_13-26-25.704515,"77.43,62.69"
2024-05-28_13-26-25.733361,"64.16,49.77"
2024-05-28_13-26-25.766125,"52.99,72.46"
2024-05-28_13-26-25.798888,"61.37,65.47"
2024-05-28_13-26-25.831669,"59.39,71.19"
2024-05-28_13-26-25.864397,"76.32,82.50"
2024-05-28_13-26-25.897134,"51.45,75.33"
2024-05-28_13-26-25.929794,"91.49,73.13"
2024-05-28_13-26-25.958606,"75.78,68.30"
2024-05-28_13-26-25.991410,"94.75,40.55"
2024-05-28_13-26-26.024214,"71.84,43.01"
2024-05-28_13-26-26.057150,"48.92,64.74"
2024-05-28_13-26-26.089696,"51.83,70.65"
2024-05-28_13-26-26.122418,"60.32,65.72"
2024-05-28_13-26-26.155095,"69.54,78.94"
2024-05-28_13-26-26.183894,"50.46,74.25"
2024-05-28_13-26-26.216637,"86.94,69.52"
2024-05-28_13-26-26.249423,"73.70,75.09"
2024-05-28_13-26-26.282192,"86.63,49.45"
2024-05-28_13-26-26.314996,"76.60,39.31"
2024-05-28_13-26-26.347734,"79.50,70.34"
2024-05-28_13-26-26.380341,"58.00,65.83"
2024-05-28_13-26-26.409105,"47.26,69.42"
2024-05-28_13-26-26.441951,"73.72,76.44"
2024-05-28_13-26-26.474699,"58.66,70.58"
2024-05-28_13-26-26.507478,"51.69,74.48"
2024-05-28_13-26-26.540398,"89.99,77.68"
2024-05-28_13-26-26.572968,"78.39,77.92"
2024-05-28_13-26-26.605653,"85.36,40.96"
2024-05-28_13-26-26.634443,"79.04,65.82"
2024-05-28_13-26-26.667186,"65.95,59.76"
2024-05-28_13-26-26.700068,"56.90,64.49"
2024-05-28_13-26-26.732730,"55.08,75.71"
2024-05-28_13-26-26.765546,"66.31,72.29"
2024-05-28_13-26-26.798209,"56.35,70.48"
2024-05-28_13-26-26.830928,"59.59,82.61"
2024-05-28_13-26-26.859770,"90.58,77.18"
2024-05-28_13-26-26.892468,"70.21,69.56"
2024-05-28_13-26-26.925146,"86.24,60.44"
2024-05-28_13-26-26.957994,"66.01,67.55"
2024-05-28_13-26-26.990731,"55.54,72.49"
2024-05-28_13-26-27.023582,"57.76,74.69"
2024-05-28_13-26-27.056220,"57.91,67.32"
2024-05-28_13-26-27.084986,"60.67,73.63"
2024-05-28_13-26-27.117753,"56.42,70.92"
2024-05-28_13-26-27.150481,"77.15,85.79"
2024-05-28_13-26-27.183306,"76.69,60.35"
2024-05-28_13-26-27.216057,"79.89,44.89"
2024-05-28_13-26-27.248779,"78.74,60.62"
2024-05-28_13-26-27.281477,"67.52,46.23"
2024-05-28_13-26-27.310253,"51.64,76.16"
2024-05-28_13-26-27.343029,"52.50,71.52"
2024-05-28_13-26-27.375772,"66.30,66.77"
2024-05-28_13-26-27.408604,"56.10,74.63"
2024-05-28_13-26-27.441345,"52.17,81.61"
2024-05-28_13-26-27.474021,"79.57,74.28"
2024-05-28_13-26-27.506732,"77.13,76.50"
2024-05-28_13-26-27.535753,"92.24,47.01"
2024-05-28_13-26-27.568332,"66.23,48.97"
2024-05-28_13-26-27.601146,"66.77,76.54"
2024-05-28_13-26-27.633807,"56.29,66.39"
2024-05-28_13-26-27.666585,"53.27,70.90"
2024-05-28_13-26-27.699366,"76.32,69.90"
2024-05-28_13-26-27.732059,"48.97,74.13"
2024-05-28_13-26-27.760763,"86.18,84.98"
2024-05-28_13-26-27.793546,"61.06,69.55"
2024-05-28_13-26-27.826371,"80.83,60.16"
2024-05-28_13-26-27.859168,"94.25,46.13"
2024-05-28_13-26-27.894914,"43.01,77.73"
2024-05-28_13-26-27.924670,"52.29,74.41"
2024-05-28_13-26-27.957281,"57.83,64.89"
2024-05-28_13-26-27.986044,"53.15,72.53"
2024-05-28_13-26-28.018813,"65.14,69.18"
2024-05-28_13-26-28.051616,"52.04,83.72"
2024-05-28_13-26-28.084405,"90.32,77.72"
2024-05-28_13-26-28.117091,"74.62,67.53"
2024-05-28_13-26-28.149873,"89.86,35.36"
2024-05-28_13-26-28.182588,"83.98,68.73"
2024-05-28_13-26-28.215265,"49.87,64.04"
2024-05-28_13-26-28.244140,"52.33,71.07"
2024-05-28_13-26-28.276839,"61.40,66.35"
2024-05-28_13-26-28.309622,"65.37,72.52"
2024-05-28_13-26-28.342425,"51.01,80.62"
2024-05-28_13-26-28.375155,"83.28,72.44"
2024-05-28_13-26-28.407880,"73.21,76.21"
2024-05-28_13-26-28.440576,"87.59,49.35"
2024-05-28_13-26-28.469387,"81.75,73.65"
2024-05-28_13-26-28.502118,"65.30,61.60"
2024-05-28_13-26-28.534895,"53.12,64.71"
2024-05-28_13-26-28.567772,"53.56,70.54"
2024-05-28_13-26-28.600495,"72.90,67.54"
2024-05-28_13-26-28.633140,"54.62,80.15"
2024-05-28_13-26-28.665871,"51.95,83.84"
2024-05-28_13-26-28.694679,"89.02,76.04"
2024-05-28_13-26-28.727490,"76.31,74.13"
2024-05-28_13-26-28.760162,"90.69,47.80"
2024-05-28_13-26-28.792994,"77.38,58.52"
2024-05-28_13-26-28.825717,"72.53,60.93"
2024-05-28_13-26-28.858445,"58.13,64.98"
2024-05-28_13-26-28.891141,"47.20,70.74"
2024-05-28_13-26-28.919967,"89.91,80.63"
2024-05-28_13-26-28.952699,"48.35,70.80"
2024-05-28_13-26-28.985522,"69.59,78.21"
2024-05-28_13-26-29.018186,"84.35,65.98"
2024-05-28_13-26-29.051089,"81.01,77.14"
2024-05-28_13-26-29.083754,"87.56,41.01"
2024-05-28_13-26-29.116457,"59.57,56.04"
