timestamp,EMG
2024-05-28_16-38-10.677660,"78.72,28.41"
2024-05-28_16-38-10.710175,"80.47,34.79"
2024-05-28_16-38-10.742999,"69.33,40.18"
2024-05-28_16-38-10.775593,"74.93,60.22"
2024-05-28_16-38-10.804343,"64.29,46.00"
2024-05-28_16-38-10.837229,"55.70,54.32"
2024-05-28_16-38-10.869940,"43.09,75.26"
2024-05-28_16-38-10.902798,"62.03,55.81"
2024-05-28_16-38-10.935568,"81.36,75.10"
2024-05-28_16-38-10.968301,"100.97,72.91"
2024-05-28_16-38-11.001041,"97.78,59.66"
2024-05-28_16-38-11.029710,"94.60,34.79"
2024-05-28_16-38-11.062507,"91.68,36.58"
2024-05-28_16-38-11.095370,"93.41,35.06"
2024-05-28_16-38-11.128150,"57.11,35.60"
2024-05-28_16-38-11.161009,"67.62,73.54"
2024-05-28_16-38-11.194182,"71.87,65.60"
2024-05-28_16-38-11.226273,"54.69,67.59"
2024-05-28_16-38-11.255057,"60.17,53.05"
2024-05-28_16-38-11.287851,"66.17,65.77"
2024-05-28_16-38-11.320677,"66.18,57.05"
2024-05-28_16-38-11.353358,"79.14,72.11"
2024-05-28_16-38-11.386215,"93.22,66.18"
2024-05-28_16-38-11.419037,"100.31,35.71"
2024-05-28_16-38-11.451728,"95.67,31.53"
2024-05-28_16-38-11.480382,"85.48,35.91"
2024-05-28_16-38-11.513281,"65.55,38.39"
2024-05-28_16-38-11.546562,"62.51,70.47"
2024-05-28_16-38-11.578740,"85.67,58.56"
2024-05-28_16-38-11.611604,"57.06,59.39"
2024-05-28_16-38-11.644836,"54.84,56.64"
2024-05-28_16-38-11.676987,"52.65,65.73"
2024-05-28_16-38-11.709662,"83.73,68.89"
2024-05-28_16-38-11.738506,"99.24,84.11"
2024-05-28_16-38-11.771282,"77.99,57.30"
2024-05-28_16-38-11.804161,"103.63,38.72"
2024-05-28_16-38-11.836847,"93.71,34.00"
2024-05-28_16-38-11.869607,"81.23,33.52"
2024-05-28_16-38-11.902327,"66.43,37.31"
2024-05-28_16-38-11.935103,"66.20,38.73"
2024-05-28_16-38-11.963927,"75.99,57.24"
2024-05-28_16-38-11.996748,"56.11,54.13"
2024-05-28_16-38-12.046977,"69.27,67.33"
2024-05-28_16-38-12.062606,"56.79,58.25"
2024-05-28_16-38-12.095107,"78.78,73.80"
2024-05-28_16-38-12.127702,"68.17,87.39"
2024-05-28_16-38-12.160484,"87.82,59.18"
2024-05-28_16-38-12.189181,"98.37,33.50"
2024-05-28_16-38-12.221953,"96.00,37.38"
2024-05-28_16-38-12.254739,"85.50,37.59"
2024-05-28_16-38-12.287503,"85.75,32.53"
2024-05-28_16-38-12.320314,"64.85,38.72"
2024-05-28_16-38-12.353001,"81.75,80.65"
2024-05-28_16-38-12.385728,"67.84,35.27"
2024-05-28_16-38-12.414802,"71.85,73.69"
2024-05-28_16-38-12.447635,"58.39,73.87"
2024-05-28_16-38-12.480102,"56.50,57.61"
2024-05-28_16-38-12.512874,"91.13,81.13"
2024-05-28_16-38-12.545819,"100.78,80.15"
2024-05-28_16-38-12.578327,"83.10,56.76"
2024-05-28_16-38-12.611037,"105.34,32.67"
2024-05-28_16-38-12.639868,"92.29,35.05"
2024-05-28_16-38-12.672626,"74.53,34.79"
2024-05-28_16-38-12.705387,"55.00,39.45"
2024-05-28_16-38-12.738370,"72.63,62.92"
2024-05-28_16-38-12.771243,"64.93,57.14"
2024-05-28_16-38-12.805982,"61.85,74.08"
2024-05-28_16-38-12.836481,"69.13,70.32"
2024-05-28_16-38-12.867715,"56.99,74.12"
2024-05-28_16-38-12.946396,"77.37,72.81"
2024-05-28_16-38-12.946992,"96.65,71.33"
2024-05-28_16-38-12.969850,"98.69,37.66"
2024-05-28_16-38-13.002300,"92.44,37.11"
2024-05-28_16-38-13.030270,"97.37,32.41"
2024-05-28_16-38-13.064052,"74.32,35.63"
2024-05-28_16-38-13.109458,"62.30,37.00"
2024-05-28_16-38-13.134604,"69.18,78.93"
2024-05-28_16-38-13.156434,"65.38,57.60"
2024-05-28_16-38-13.188993,"71.57,89.82"
2024-05-28_16-38-13.221992,"67.35,53.46"
2024-05-28_16-38-13.469576,"55.95,67.25"
2024-05-28_16-38-13.471292,"63.91,56.96"
2024-05-28_16-38-13.471553,"88.84,74.55"
2024-05-28_16-38-13.471917,"86.42,60.20"
2024-05-28_16-38-13.472308,"106.00,35.66"
2024-05-28_16-38-13.475219,"86.62,33.46"
2024-05-28_16-38-13.475599,"85.37,37.69"
2024-05-28_16-38-13.515011,"66.55,36.96"
2024-05-28_16-38-13.527173,"74.17,68.68"
2024-05-28_16-38-13.548586,"77.78,58.16"
2024-05-28_16-38-13.669853,"62.92,59.58"
2024-05-28_16-38-13.675002,"65.95,75.74"
2024-05-28_16-38-13.675545,"63.95,56.21"
2024-05-28_16-38-13.695264,"73.70,73.16"
2024-05-28_16-38-13.708981,"77.01,86.50"
2024-05-28_16-38-13.742064,"86.25,59.38"
2024-05-28_16-38-13.787464,"108.08,34.05"
2024-05-28_16-38-13.807232,"89.45,34.50"
2024-05-28_16-38-13.850810,"91.50,33.68"
2024-05-28_16-38-13.889225,"64.88,37.40"
2024-05-28_16-38-13.916122,"69.16,70.09"
2024-05-28_16-38-13.944844,"74.97,60.65"
2024-05-28_16-38-13.987629,"58.83,80.44"
2024-05-28_16-38-13.992369,"72.47,68.43"
2024-05-28_16-38-14.025563,"62.08,55.24"
2024-05-28_16-38-14.059515,"67.81,77.08"
2024-05-28_16-38-14.104153,"107.87,83.40"
2024-05-28_16-38-14.131793,"96.24,58.22"
2024-05-28_16-38-14.158802,"94.03,34.46"
2024-05-28_16-38-14.189482,"90.43,36.79"
2024-05-28_16-38-14.218008,"93.39,34.56"
2024-05-28_16-38-14.251226,"56.06,35.64"
2024-05-28_16-38-14.297358,"68.34,37.79"
2024-05-28_16-38-14.316637,"72.62,75.80"
2024-05-28_16-38-14.349994,"70.47,58.43"
2024-05-28_16-38-14.381053,"58.10,52.17"
2024-05-28_16-38-14.414029,"59.31,80.62"
2024-05-28_16-38-14.442910,"74.78,63.34"
2024-05-28_16-38-14.475648,"67.38,42.91"
2024-05-28_16-38-14.514692,"55.81,54.77"
2024-05-28_16-38-14.540977,"71.60,61.96"
2024-05-28_16-38-14.573668,"72.77,52.37"
2024-05-28_16-38-14.628053,"56.73,53.07"
2024-05-28_16-38-14.641354,"67.72,44.92"
2024-05-28_16-38-14.667994,"85.95,84.52"
2024-05-28_16-38-14.700697,"75.00,30.22"
2024-05-28_16-38-14.733584,"95.53,68.34"
2024-05-28_16-38-14.766300,"100.90,82.12"
2024-05-28_16-38-14.798954,"68.57,73.20"
2024-05-28_16-38-14.831788,"81.53,55.11"
2024-05-28_16-38-14.864403,"87.94,47.18"
2024-05-28_16-38-14.893365,"69.72,70.20"
2024-05-28_16-38-14.926108,"55.56,66.90"
2024-05-28_16-38-14.958776,"65.03,77.45"
2024-05-28_16-38-14.991518,"85.17,74.28"
2024-05-28_16-38-15.024352,"71.61,47.42"
2024-05-28_16-38-15.057108,"62.05,55.82"
2024-05-28_16-38-15.089834,"88.32,72.44"
2024-05-28_16-38-15.118559,"49.13,48.52"
2024-05-28_16-38-15.151335,"86.78,51.22"
2024-05-28_16-38-15.184084,"84.65,35.00"
2024-05-28_16-38-15.216907,"83.57,36.82"
2024-05-28_16-38-15.249663,"88.83,31.24"
2024-05-28_16-38-15.282394,"78.85,28.77"
2024-05-28_16-38-15.315088,"73.31,51.94"
2024-05-28_16-38-15.347807,"67.85,49.27"
2024-05-28_16-38-15.378847,"68.05,61.85"
2024-05-28_16-38-15.415796,"67.41,49.81"
2024-05-28_16-38-15.442257,"67.90,42.65"
2024-05-28_16-38-15.475902,"80.68,83.69"
2024-05-28_16-38-15.549137,"78.11,84.95"
2024-05-28_16-38-15.551225,"91.51,53.89"
2024-05-28_16-38-15.598400,"84.51,32.22"
2024-05-28_16-38-15.603638,"87.14,33.36"
2024-05-28_16-38-15.634918,"79.66,31.95"
2024-05-28_16-38-15.667811,"81.10,30.85"
2024-05-28_16-38-15.700420,"77.54,26.41"
2024-05-28_16-38-15.733299,"67.64,66.25"
2024-05-28_16-38-15.765802,"68.80,47.11"
2024-05-28_16-38-15.798612,"66.57,61.29"
2024-05-28_16-38-15.827340,"68.73,50.47"
2024-05-28_16-38-15.860121,"74.59,27.78"
2024-05-28_16-38-15.893327,"79.20,76.64"
2024-05-28_16-38-15.925644,"89.59,56.76"
2024-05-28_16-38-15.958467,"87.42,68.02"
2024-05-28_16-38-15.991148,"63.10,64.01"
2024-05-28_16-38-16.023824,"67.99,72.34"
2024-05-28_16-38-16.052652,"34.09,92.19"
2024-05-28_16-38-16.085490,"50.17,73.35"
2024-05-28_16-38-16.118203,"67.42,65.00"
2024-05-28_16-38-16.151268,"67.67,41.08"
2024-05-28_16-38-16.184040,"66.24,38.09"
2024-05-28_16-38-16.217913,"74.81,40.34"
2024-05-28_16-38-16.249232,"67.56,39.68"
2024-05-28_16-38-16.278049,"82.07,33.86"
2024-05-28_16-38-16.310778,"93.08,81.96"
2024-05-28_16-38-16.343608,"61.74,56.19"
2024-05-28_16-38-16.376332,"59.07,87.89"
2024-05-28_16-38-16.409079,"36.86,70.52"
2024-05-28_16-38-16.441815,"76.20,62.82"
2024-05-28_16-38-16.474499,"78.11,26.70"
2024-05-28_16-38-16.503357,"73.10,49.62"
2024-05-28_16-38-16.536103,"65.83,70.38"
2024-05-28_16-38-16.568950,"70.63,61.49"
2024-05-28_16-38-16.601687,"67.99,32.74"
2024-05-28_16-38-16.634420,"73.24,69.31"
2024-05-28_16-38-16.667188,"73.43,88.48"
2024-05-28_16-38-16.699859,"82.70,88.73"
2024-05-28_16-38-16.728654,"90.61,32.55"
2024-05-28_16-38-16.761453,"82.86,32.52"
2024-05-28_16-38-16.794221,"88.29,32.86"
2024-05-28_16-38-16.826964,"83.49,33.94"
2024-05-28_16-38-16.859798,"75.91,31.82"
2024-05-28_16-38-16.892479,"84.83,29.55"
2024-05-28_16-38-16.925201,"81.24,29.42"
2024-05-28_16-38-16.953990,"71.51,57.65"
2024-05-28_16-38-16.986928,"64.78,54.11"
2024-05-28_16-38-17.019564,"85.54,57.81"
2024-05-28_16-38-17.052387,"82.00,93.15"
2024-05-28_16-38-17.085161,"86.74,30.39"
2024-05-28_16-38-17.130827,"83.96,33.41"
2024-05-28_16-38-17.163876,"85.56,35.77"
2024-05-28_16-38-17.179494,"95.72,32.36"
2024-05-28_16-38-17.212089,"80.82,30.26"
2024-05-28_16-38-17.244892,"82.54,27.53"
2024-05-28_16-38-17.277642,"67.86,51.40"
2024-05-28_16-38-17.310436,"73.42,66.93"
2024-05-28_16-38-17.343214,"66.06,58.81"
2024-05-28_16-38-17.375873,"76.26,32.78"
2024-05-28_16-38-17.404647,"73.10,33.76"
2024-05-28_16-38-17.437461,"89.23,69.24"
2024-05-28_16-38-17.470235,"84.78,81.21"
2024-05-28_16-38-17.503052,"85.26,57.44"
2024-05-28_16-38-17.536017,"89.01,32.19"
2024-05-28_16-38-17.568559,"83.60,34.65"
2024-05-28_16-38-17.601271,"84.00,36.29"
2024-05-28_16-38-17.630030,"93.60,31.92"
2024-05-28_16-38-17.662859,"83.29,31.65"
2024-05-28_16-38-17.695554,"82.20,28.51"
2024-05-28_16-38-17.728344,"75.66,26.14"
2024-05-28_16-38-17.761141,"69.32,66.21"
2024-05-28_16-38-17.793892,"71.44,64.09"
2024-05-28_16-38-17.826555,"73.29,58.59"
2024-05-28_16-38-17.855313,"79.16,66.96"
2024-05-28_16-38-17.888111,"74.58,56.10"
2024-05-28_16-38-17.920942,"93.05,57.71"
2024-05-28_16-38-17.953662,"84.13,32.10"
2024-05-28_16-38-17.986425,"84.00,30.52"
2024-05-28_16-38-18.019242,"69.37,51.13"
2024-05-28_16-38-18.051949,"71.41,46.83"
2024-05-28_16-38-18.080660,"65.50,75.35"
2024-05-28_16-38-18.113474,"68.05,53.70"
2024-05-28_16-38-18.146944,"73.87,51.91"
2024-05-28_16-38-18.179016,"77.14,97.80"
2024-05-28_16-38-18.211803,"82.89,90.64"
2024-05-28_16-38-18.244601,"74.53,38.09"
2024-05-28_16-38-18.277236,"82.03,54.44"
2024-05-28_16-38-18.309964,"72.99,71.60"
2024-05-28_16-38-18.338775,"41.10,66.32"
2024-05-28_16-38-18.371579,"41.27,66.68"
2024-05-28_16-38-18.404304,"42.06,67.29"
2024-05-28_16-38-18.437173,"47.96,75.09"
2024-05-28_16-38-18.469913,"55.87,60.68"
2024-05-28_16-38-18.502685,"66.24,39.36"
2024-05-28_16-38-18.535448,"67.37,41.66"
2024-05-28_16-38-18.564118,"66.49,38.53"
2024-05-28_16-38-18.597513,"83.43,37.19"
2024-05-28_16-38-18.629764,"84.56,26.34"
2024-05-28_16-38-18.662450,"66.05,76.04"
2024-05-28_16-38-18.696312,"57.89,68.64"
2024-05-28_16-38-18.727918,"37.43,73.59"
2024-05-28_16-38-18.760569,"53.81,77.90"
2024-05-28_16-38-18.789452,"67.06,38.27"
2024-05-28_16-38-18.822264,"55.19,58.20"
2024-05-28_16-38-18.854977,"54.51,58.92"
2024-05-28_16-38-18.887778,"67.34,57.36"
2024-05-28_16-38-18.920626,"66.35,87.27"
2024-05-28_16-38-18.953278,"58.66,82.89"
2024-05-28_16-38-18.985990,"92.11,35.43"
2024-05-28_16-38-19.014856,"85.62,64.21"
2024-05-28_16-38-19.047573,"49.40,66.23"
2024-05-28_16-38-19.080366,"64.87,44.52"
2024-05-28_16-38-19.113116,"55.88,56.52"
2024-05-28_16-38-19.146080,"53.19,53.39"
2024-05-28_16-38-19.178610,"75.86,36.69"
2024-05-28_16-38-19.211418,"68.86,58.52"
2024-05-28_16-38-19.252664,"76.76,89.94"
2024-05-28_16-38-19.277482,"73.42,85.03"
2024-05-28_16-38-19.305672,"65.42,56.25"
2024-05-28_16-38-19.338578,"57.15,49.32"
2024-05-28_16-38-19.371263,"89.43,30.81"
2024-05-28_16-38-19.404110,"83.85,66.31"
2024-05-28_16-38-19.436651,"60.21,66.65"
2024-05-28_16-38-19.465492,"64.92,83.25"
2024-05-28_16-38-19.498885,"39.89,67.28"
2024-05-28_16-38-19.531018,"52.94,68.43"
2024-05-28_16-38-19.563852,"66.20,74.53"
2024-05-28_16-38-19.596760,"44.31,72.50"
2024-05-28_16-38-19.629288,"70.18,59.32"
2024-05-28_16-38-19.662078,"67.28,39.88"
2024-05-28_16-38-19.690796,"66.94,39.69"
2024-05-28_16-38-19.723663,"67.24,41.82"
2024-05-28_16-38-19.756380,"79.47,37.30"
2024-05-28_16-38-19.789121,"85.57,51.65"
2024-05-28_16-38-19.821896,"66.60,75.37"
2024-05-28_16-38-19.854643,"58.57,68.49"
2024-05-28_16-38-19.887355,"42.99,66.08"
2024-05-28_16-38-19.916153,"35.92,77.48"
2024-05-28_16-38-19.948841,"48.23,83.77"
2024-05-28_16-38-19.981719,"56.22,67.77"
2024-05-28_16-38-20.014490,"68.04,37.92"
2024-05-28_16-38-20.047770,"66.36,38.71"
2024-05-28_16-38-20.079928,"74.91,39.04"
2024-05-28_16-38-20.112705,"67.57,39.27"
2024-05-28_16-38-20.141533,"77.99,38.05"
2024-05-28_16-38-20.174335,"92.21,24.59"
2024-05-28_16-38-20.207124,"58.69,85.13"
2024-05-28_16-38-20.239855,"54.79,66.44"
2024-05-28_16-38-20.272590,"40.34,66.58"
2024-05-28_16-38-20.305352,"39.02,66.05"
2024-05-28_16-38-20.338162,"39.45,76.98"
2024-05-28_16-38-20.366829,"59.09,78.47"
2024-05-28_16-38-20.399600,"64.91,43.27"
2024-05-28_16-38-20.432583,"67.32,39.37"
2024-05-28_16-38-20.465120,"67.21,41.87"
2024-05-28_16-38-20.498394,"66.48,39.08"
2024-05-28_16-38-20.530711,"73.21,36.22"
2024-05-28_16-38-20.563374,"78.19,49.59"
2024-05-28_16-38-20.592149,"53.24,75.74"
2024-05-28_16-38-20.625004,"51.75,66.87"
2024-05-28_16-38-20.657699,"39.43,74.64"
2024-05-28_16-38-20.690496,"38.43,66.26"
2024-05-28_16-38-20.723275,"56.63,68.61"
2024-05-28_16-38-20.756031,"45.95,62.09"
2024-05-28_16-38-20.788747,"65.66,38.89"
2024-05-28_16-38-20.817492,"74.97,38.40"
2024-05-28_16-38-20.850192,"67.57,39.62"
2024-05-28_16-38-20.883060,"66.85,39.85"
2024-05-28_16-38-20.915925,"69.15,40.24"
2024-05-28_16-38-20.948586,"94.40,25.47"
2024-05-28_16-38-20.981347,"71.37,74.49"
2024-05-28_16-38-21.014011,"44.12,68.31"
2024-05-28_16-38-21.042849,"40.85,66.79"
2024-05-28_16-38-21.075558,"39.76,77.66"
2024-05-28_16-38-21.108342,"53.64,83.95"
2024-05-28_16-38-21.141136,"57.45,76.83"
2024-05-28_16-38-21.174046,"57.73,62.69"
2024-05-28_16-38-21.206686,"66.31,43.55"
2024-05-28_16-38-21.239378,"66.77,38.48"
2024-05-28_16-38-21.272133,"74.98,39.45"
2024-05-28_16-38-21.300837,"66.44,38.56"
2024-05-28_16-38-21.333690,"74.75,27.41"
2024-05-28_16-38-21.366491,"63.09,76.62"
2024-05-28_16-38-21.399351,"57.81,76.54"
2024-05-28_16-38-21.432050,"40.69,67.31"
2024-05-28_16-38-21.464781,"37.69,76.91"
2024-05-28_16-38-21.499603,"51.67,86.39"
2024-05-28_16-38-21.526250,"58.34,65.69"
2024-05-28_16-38-21.559068,"75.40,38.74"
2024-05-28_16-38-21.591813,"67.58,39.27"
2024-05-28_16-38-21.624634,"66.81,39.86"
2024-05-28_16-38-21.657530,"67.15,42.22"
2024-05-28_16-38-21.690047,"65.44,36.03"
2024-05-28_16-38-21.722764,"93.63,32.03"
2024-05-28_16-38-21.751976,"67.42,38.26"
2024-05-28_16-38-21.784372,"83.41,65.29"
2024-05-28_16-38-21.817137,"87.82,29.07"
2024-05-28_16-38-21.850050,"89.71,33.26"
2024-05-28_16-38-21.882713,"84.59,34.32"
2024-05-28_16-38-21.915426,"89.05,37.84"
2024-05-28_16-38-21.948296,"91.22,33.25"
2024-05-28_16-38-21.976911,"73.39,26.83"
2024-05-28_16-38-22.009684,"76.02,25.15"
2024-05-28_16-38-22.042442,"70.54,78.39"
2024-05-28_16-38-22.075299,"74.71,28.76"
2024-05-28_16-38-22.108113,"85.24,34.33"
2024-05-28_16-38-22.140739,"66.59,41.58"
2024-05-28_16-38-22.173483,"62.76,73.39"
2024-05-28_16-38-22.202487,"41.43,66.82"
2024-05-28_16-38-22.235044,"40.27,66.93"
2024-05-28_16-38-22.267840,"38.52,89.92"
2024-05-28_16-38-22.300573,"71.93,73.58"
2024-05-28_16-38-22.333404,"67.98,39.38"
2024-05-28_16-38-22.366105,"66.67,39.74"
2024-05-28_16-38-22.399135,"67.21,41.54"
2024-05-28_16-38-22.427621,"66.47,38.96"
2024-05-28_16-38-22.460445,"73.93,38.88"
2024-05-28_16-38-22.493137,"78.27,29.20"
2024-05-28_16-38-22.525952,"62.20,77.78"
2024-05-28_16-38-22.558649,"55.37,68.59"
2024-05-28_16-38-22.591448,"40.15,74.37"
2024-05-28_16-38-22.624129,"39.89,67.39"
2024-05-28_16-38-22.652950,"40.71,66.52"
2024-05-28_16-38-22.685773,"53.30,99.50"
2024-05-28_16-38-22.718662,"74.19,69.61"
2024-05-28_16-38-22.751344,"74.68,39.72"
2024-05-28_16-38-22.784008,"67.43,39.51"
2024-05-28_16-38-22.816761,"66.93,40.15"
2024-05-28_16-38-22.849472,"67.29,41.87"
2024-05-28_16-38-22.878307,"88.53,51.75"
2024-05-28_16-38-22.911035,"69.33,76.10"
2024-05-28_16-38-22.943831,"63.52,67.67"
2024-05-28_16-38-22.976614,"40.45,66.92"
2024-05-28_16-38-23.009378,"42.79,66.14"
2024-05-28_16-38-23.042044,"38.10,73.63"
2024-05-28_16-38-23.074779,"68.68,70.02"
2024-05-28_16-38-23.103792,"66.50,56.47"
2024-05-28_16-38-23.136399,"67.18,41.83"
2024-05-28_16-38-23.171320,"66.53,38.59"
2024-05-28_16-38-23.202324,"74.91,39.47"
2024-05-28_16-38-23.234686,"65.82,36.83"
2024-05-28_16-38-23.267468,"79.88,51.60"
2024-05-28_16-38-23.300271,"68.31,74.98"
2024-05-28_16-38-23.328945,"45.55,75.71"
2024-05-28_16-38-23.361743,"40.60,67.25"
2024-05-28_16-38-23.394474,"40.23,66.47"
2024-05-28_16-38-23.427260,"38.37,78.78"
2024-05-28_16-38-23.462136,"63.12,83.20"
2024-05-28_16-38-23.492824,"74.52,39.91"
2024-05-28_16-38-23.525507,"67.64,39.15"
2024-05-28_16-38-23.558294,"66.85,39.69"
2024-05-28_16-38-23.587165,"67.29,41.88"
2024-05-28_16-38-23.619861,"94.47,28.77"
2024-05-28_16-38-23.652711,"79.85,62.98"
2024-05-28_16-38-23.685866,"57.07,68.68"
2024-05-28_16-38-23.718227,"40.46,66.88"
2024-05-28_16-38-23.750914,"42.89,66.34"
2024-05-28_16-38-23.779644,"36.54,83.34"
2024-05-28_16-38-23.812391,"53.72,75.32"
2024-05-28_16-38-23.845162,"71.19,38.77"
2024-05-28_16-38-23.891982,"67.50,41.68"
2024-05-28_16-38-23.912016,"66.67,38.54"
2024-05-28_16-38-23.943476,"74.91,39.47"
2024-05-28_16-38-23.976175,"67.48,39.52"
2024-05-28_16-38-24.008864,"92.22,29.59"
2024-05-28_16-38-24.037864,"73.86,63.96"
2024-05-28_16-38-24.070561,"41.09,79.20"
2024-05-28_16-38-24.104452,"40.30,67.34"
2024-05-28_16-38-24.136699,"40.74,66.66"
2024-05-28_16-38-24.169074,"37.19,71.11"
2024-05-28_16-38-24.201528,"49.24,79.86"
2024-05-28_16-38-24.234209,"75.60,54.81"
2024-05-28_16-38-24.263070,"67.28,39.52"
2024-05-28_16-38-24.295776,"66.85,39.86"
2024-05-28_16-38-24.328644,"67.24,41.87"
2024-05-28_16-38-24.361380,"79.53,37.37"
2024-05-28_16-38-24.394166,"85.95,24.80"
2024-05-28_16-38-24.426806,"75.33,73.61"
2024-05-28_16-38-24.459593,"41.22,67.71"
2024-05-28_16-38-24.488355,"40.71,64.27"
2024-05-28_16-38-24.521179,"48.06,87.34"
2024-05-28_16-38-24.553915,"62.67,66.69"
2024-05-28_16-38-24.586735,"52.21,56.86"
2024-05-28_16-38-24.619652,"55.58,54.68"
2024-05-28_16-38-24.652687,"66.13,38.75"
2024-05-28_16-38-24.684893,"75.01,39.36"
2024-05-28_16-38-24.713816,"67.62,39.63"
2024-05-28_16-38-24.747008,"90.35,29.07"
2024-05-28_16-38-24.779724,"75.56,63.88"
2024-05-28_16-38-24.812140,"51.06,77.01"
2024-05-28_16-38-24.844806,"40.69,67.24"
2024-05-28_16-38-24.877506,"40.40,66.48"
2024-05-28_16-38-24.910250,"34.50,83.74"
2024-05-28_16-38-24.939173,"47.66,73.71"
2024-05-28_16-38-24.971889,"79.70,54.51"
2024-05-28_16-38-25.004599,"66.61,40.02"
2024-05-28_16-38-25.037457,"67.01,39.60"
2024-05-28_16-38-25.071787,"67.21,41.77"
2024-05-28_16-38-25.103154,"66.44,39.13"
2024-05-28_16-38-25.135843,"81.99,28.93"
2024-05-28_16-38-25.164398,"66.83,75.82"
2024-05-28_16-38-25.198168,"60.60,68.53"
2024-05-28_16-38-25.229955,"41.72,66.11"
2024-05-28_16-38-25.262705,"38.18,73.53"
2024-05-28_16-38-25.295501,"34.64,73.52"
2024-05-28_16-38-25.328219,"51.46,56.95"
2024-05-28_16-38-25.360957,"69.33,43.71"
2024-05-28_16-38-25.389856,"66.44,38.76"
2024-05-28_16-38-25.422602,"74.98,39.41"
2024-05-28_16-38-25.455283,"67.43,39.35"
2024-05-28_16-38-25.488107,"66.89,40.56"
2024-05-28_16-38-25.520831,"87.24,31.39"
2024-05-28_16-38-25.553746,"70.12,75.40"
2024-05-28_16-38-25.586408,"62.39,90.15"
2024-05-28_16-38-25.615038,"66.26,74.70"
2024-05-28_16-38-25.648369,"57.28,61.47"
2024-05-28_16-38-25.680658,"68.39,52.44"
2024-05-28_16-38-25.713401,"65.07,55.56"
2024-05-28_16-38-25.747186,"66.50,38.87"
2024-05-28_16-38-25.778958,"67.08,39.70"
2024-05-28_16-38-25.811609,"67.16,42.26"
2024-05-28_16-38-25.840440,"66.48,38.76"
2024-05-28_16-38-25.873235,"74.84,39.83"
2024-05-28_16-38-25.905971,"76.44,35.07"
2024-05-28_16-38-25.938917,"80.91,25.66"
2024-05-28_16-38-25.971524,"72.47,68.21"
2024-05-28_16-38-26.004241,"85.29,40.27"
2024-05-28_16-38-26.037193,"84.89,36.15"
2024-05-28_16-38-26.065731,"78.05,31.59"
2024-05-28_16-38-26.098801,"62.97,33.63"
2024-05-28_16-38-26.131300,"65.88,58.34"
2024-05-28_16-38-26.164065,"64.87,55.08"
2024-05-28_16-38-26.198588,"72.35,69.52"
2024-05-28_16-38-26.229821,"64.17,88.10"
2024-05-28_16-38-26.268262,"84.46,73.58"
2024-05-28_16-38-26.291306,"75.10,38.25"
2024-05-28_16-38-26.323854,"67.22,40.39"
2024-05-28_16-38-26.356719,"66.99,40.46"
2024-05-28_16-38-26.389491,"69.88,70.04"
2024-05-28_16-38-26.422216,"75.40,56.78"
2024-05-28_16-38-26.454943,"59.28,53.53"
2024-05-28_16-38-26.487649,"49.52,66.78"
2024-05-28_16-38-26.516397,"88.23,78.87"
2024-05-28_16-38-26.549318,"91.77,69.46"
2024-05-28_16-38-26.581922,"99.63,70.30"
2024-05-28_16-38-26.614716,"90.28,34.59"
2024-05-28_16-38-26.647778,"67.38,36.57"
2024-05-28_16-38-26.680332,"66.56,42.99"
2024-05-28_16-38-26.713040,"66.58,39.33"
2024-05-28_16-38-26.745882,"74.86,41.16"
2024-05-28_16-38-26.774498,"69.13,73.66"
2024-05-28_16-38-26.807346,"77.72,61.73"
2024-05-28_16-38-26.840091,"47.50,74.53"
2024-05-28_16-38-26.872964,"67.10,52.27"
2024-05-28_16-38-26.905635,"84.65,66.23"
2024-05-28_16-38-26.938410,"90.09,90.90"
2024-05-28_16-38-26.971218,"90.87,85.85"
2024-05-28_16-38-27.000170,"79.36,71.47"
2024-05-28_16-38-27.032738,"98.24,34.38"
2024-05-28_16-38-27.065410,"57.47,35.78"
2024-05-28_16-38-27.098438,"67.12,40.39"
2024-05-28_16-38-27.130982,"67.07,41.87"
2024-05-28_16-38-27.163675,"66.45,38.65"
2024-05-28_16-38-27.196419,"74.97,39.35"
2024-05-28_16-38-27.225242,"67.62,40.10"
2024-05-28_16-38-27.258916,"68.01,48.58"
2024-05-28_16-38-27.290764,"71.34,82.68"
2024-05-28_16-38-27.323523,"55.62,86.59"
2024-05-28_16-38-27.356285,"47.90,75.71"
2024-05-28_16-38-27.389040,"100.48,35.62"
2024-05-28_16-38-27.421766,"86.80,36.69"
2024-05-28_16-38-27.450556,"58.42,37.66"
2024-05-28_16-38-27.483277,"75.04,39.64"
2024-05-28_16-38-27.516070,"67.53,39.56"
2024-05-28_16-38-27.549029,"66.94,40.16"
2024-05-28_16-38-27.581627,"66.83,57.13"
2024-05-28_16-38-27.615069,"77.58,93.71"
2024-05-28_16-38-27.647079,"53.81,58.89"
2024-05-28_16-38-27.675860,"79.38,34.75"
2024-05-28_16-38-27.708696,"73.67,74.52"
2024-05-28_16-38-27.741392,"77.18,79.03"
2024-05-28_16-38-27.774246,"89.80,34.67"
2024-05-28_16-38-27.806957,"59.65,52.85"
2024-05-28_16-38-27.841052,"67.22,39.37"
2024-05-28_16-38-27.872530,"67.08,41.87"
2024-05-28_16-38-27.901170,"66.52,38.60"
2024-05-28_16-38-27.934097,"74.98,39.86"
2024-05-28_16-38-27.966732,"69.27,59.61"
2024-05-28_16-38-27.999538,"51.26,65.96"
2024-05-28_16-38-28.032276,"58.02,86.05"
2024-05-28_16-38-28.064979,"73.75,79.60"
2024-05-28_16-38-28.098280,"87.00,58.00"
2024-05-28_16-38-28.126512,"102.88,57.25"
2024-05-28_16-38-28.159301,"87.48,36.27"
2024-05-28_16-38-28.192095,"79.22,43.36"
2024-05-28_16-38-28.224826,"72.64,38.14"
2024-05-28_16-38-28.257625,"67.61,39.63"
2024-05-28_16-38-28.290454,"66.94,40.51"
2024-05-28_16-38-28.323165,"66.75,58.03"
2024-05-28_16-38-28.351788,"69.28,76.49"
2024-05-28_16-38-28.384647,"72.97,62.94"
2024-05-28_16-38-28.417419,"61.92,57.50"
2024-05-28_16-38-28.450195,"65.06,69.39"
2024-05-28_16-38-28.483377,"89.62,79.04"
2024-05-28_16-38-28.515838,"91.38,76.95"
2024-05-28_16-38-28.549119,"77.95,57.05"
2024-05-28_16-38-28.577265,"59.83,39.20"
2024-05-28_16-38-28.609995,"66.82,41.64"
2024-05-28_16-38-28.642743,"66.46,39.08"
2024-05-28_16-38-28.675552,"74.93,39.82"
2024-05-28_16-38-28.708292,"73.55,64.06"
2024-05-28_16-38-28.741183,"69.15,64.38"
2024-05-28_16-38-28.773850,"61.05,61.91"
2024-05-28_16-38-28.802590,"60.62,67.26"
2024-05-28_16-38-28.835329,"57.33,61.02"
2024-05-28_16-38-28.868092,"95.78,55.96"
2024-05-28_16-38-28.900871,"90.85,58.53"
2024-05-28_16-38-28.933623,"86.04,57.86"
2024-05-28_16-38-28.966407,"65.34,37.13"
2024-05-28_16-38-28.999527,"67.76,39.16"
2024-05-28_16-38-29.027891,"66.94,39.68"
2024-05-28_16-38-29.060772,"67.12,42.49"
2024-05-28_16-38-29.093440,"69.25,67.06"
2024-05-28_16-38-29.126178,"66.75,55.41"
2024-05-28_16-38-29.158982,"69.17,53.10"
2024-05-28_16-38-29.191798,"56.86,67.86"
2024-05-28_16-38-29.224519,"90.08,65.26"
2024-05-28_16-38-29.257422,"94.47,85.66"
2024-05-28_16-38-29.285958,"93.04,54.48"
2024-05-28_16-38-29.318729,"61.31,36.97"
2024-05-28_16-38-29.351490,"64.24,41.47"
2024-05-28_16-38-29.384363,"66.63,38.76"
2024-05-28_16-38-29.417085,"75.02,39.39"
2024-05-28_16-38-29.450207,"67.47,40.39"
2024-05-28_16-38-29.482507,"68.56,84.03"
2024-05-28_16-38-29.511360,"52.88,55.19"
2024-05-28_16-38-29.544104,"59.96,76.30"
2024-05-28_16-38-29.576851,"75.38,34.06"
2024-05-28_16-38-29.609635,"89.05,68.79"
2024-05-28_16-38-29.642507,"76.66,56.73"
2024-05-28_16-38-29.675164,"65.57,63.46"
2024-05-28_16-38-29.708302,"50.09,66.10"
2024-05-28_16-38-29.736758,"55.48,30.92"
2024-05-28_16-38-29.769419,"46.00,61.45"
2024-05-28_16-38-29.802223,"54.05,90.80"
2024-05-28_16-38-29.834959,"38.03,73.14"
2024-05-28_16-38-29.867760,"48.16,65.18"
2024-05-28_16-38-29.900652,"44.69,48.26"
2024-05-28_16-38-29.933211,"55.23,66.13"
2024-05-28_16-38-29.961961,"59.00,65.90"
2024-05-28_16-38-29.994788,"61.18,49.85"
2024-05-28_16-38-30.027549,"62.49,19.27"
2024-05-28_16-38-30.060303,"68.97,53.06"
2024-05-28_16-38-30.093115,"57.27,61.55"
2024-05-28_16-38-30.125822,"80.81,74.57"
2024-05-28_16-38-30.158762,"88.05,70.11"
2024-05-28_16-38-30.187595,"66.93,39.58"
2024-05-28_16-38-30.220097,"66.89,39.27"
2024-05-28_16-38-30.252855,"68.52,40.14"
2024-05-28_16-38-30.285623,"63.42,61.27"
2024-05-28_16-38-30.318409,"72.76,77.18"
2024-05-28_16-38-30.351154,"47.85,87.30"
2024-05-28_16-38-30.383879,"67.08,57.88"
2024-05-28_16-38-30.412672,"96.72,78.92"
2024-05-28_16-38-30.445425,"97.42,70.61"
2024-05-28_16-38-30.478173,"91.50,35.16"
2024-05-28_16-38-30.510960,"60.51,38.79"
2024-05-28_16-38-30.543788,"67.29,40.92"
2024-05-28_16-38-30.576481,"66.54,38.91"
2024-05-28_16-38-30.609250,"74.91,39.57"
2024-05-28_16-38-30.638353,"69.05,38.15"
2024-05-28_16-38-30.671639,"67.07,67.45"
2024-05-28_16-38-30.711178,"66.44,71.56"
2024-05-28_16-38-30.736351,"46.64,52.50"
2024-05-28_16-38-30.769083,"96.42,84.57"
2024-05-28_16-38-30.801842,"64.92,39.95"
2024-05-28_16-38-30.834498,"86.86,88.70"
2024-05-28_16-38-30.863297,"80.32,63.06"
2024-05-28_16-38-30.896110,"62.83,38.22"
2024-05-28_16-38-30.929012,"67.22,38.62"
2024-05-28_16-38-30.961625,"66.94,39.69"
2024-05-28_16-38-30.994422,"67.17,42.65"
2024-05-28_16-38-31.027268,"67.65,64.97"
2024-05-28_16-38-31.059995,"83.28,62.73"
2024-05-28_16-38-31.088900,"66.98,71.55"
2024-05-28_16-38-31.121493,"57.80,55.67"
2024-05-28_16-38-31.154191,"91.39,65.67"
2024-05-28_16-38-31.186982,"87.63,55.59"
2024-05-28_16-38-31.219811,"88.39,77.94"
2024-05-28_16-38-31.253233,"74.31,43.88"
2024-05-28_16-38-31.285187,"62.06,40.70"
2024-05-28_16-38-31.313982,"66.14,38.87"
2024-05-28_16-38-31.346765,"74.91,39.99"
2024-05-28_16-38-31.379512,"67.53,39.98"
2024-05-28_16-38-31.412320,"69.69,69.95"
2024-05-28_16-38-31.445034,"70.39,76.41"
2024-05-28_16-38-31.477923,"62.10,63.70"
2024-05-28_16-38-31.510728,"60.68,72.00"
2024-05-28_16-38-31.539454,"64.11,56.96"
2024-05-28_16-38-31.572416,"97.50,71.48"
2024-05-28_16-38-31.605454,"98.31,84.06"
2024-05-28_16-38-31.637945,"77.39,46.11"
2024-05-28_16-38-31.670377,"63.06,38.07"
2024-05-28_16-38-31.703175,"67.36,40.12"
2024-05-28_16-38-31.735843,"67.11,42.32"
2024-05-28_16-38-31.764651,"66.48,38.16"
2024-05-28_16-38-31.797596,"76.41,58.95"
2024-05-28_16-38-31.830175,"56.32,97.66"
2024-05-28_16-38-31.862975,"57.35,60.25"
2024-05-28_16-38-31.895707,"58.25,56.93"
2024-05-28_16-38-31.928514,"86.08,66.28"
2024-05-28_16-38-31.961369,"94.08,82.32"
2024-05-28_16-38-31.993975,"84.32,76.60"
2024-05-28_16-38-32.022833,"68.86,59.40"
2024-05-28_16-38-32.055794,"55.98,38.11"
2024-05-28_16-38-32.088430,"74.99,38.89"
2024-05-28_16-38-32.121050,"67.56,40.29"
2024-05-28_16-38-32.153932,"66.84,40.15"
2024-05-28_16-38-32.186529,"66.81,56.57"
2024-05-28_16-38-32.219276,"70.65,52.30"
2024-05-28_16-38-32.248154,"75.10,57.82"
2024-05-28_16-38-32.280883,"62.48,73.95"
2024-05-28_16-38-32.313633,"71.92,74.38"
2024-05-28_16-38-32.346430,"68.41,35.72"
2024-05-28_16-38-32.379193,"85.64,86.20"
2024-05-28_16-38-32.411945,"64.46,50.02"
2024-05-28_16-38-32.444699,"62.38,39.64"
2024-05-28_16-38-32.473358,"67.08,41.59"
2024-05-28_16-38-32.506180,"66.53,39.39"
2024-05-28_16-38-32.538956,"74.94,39.51"
2024-05-28_16-38-32.571772,"71.53,67.60"
2024-05-28_16-38-32.604471,"73.03,92.67"
2024-05-28_16-38-32.637236,"59.10,93.02"
2024-05-28_16-38-32.669920,"67.30,56.54"
2024-05-28_16-38-32.699129,"79.91,73.99"
2024-05-28_16-38-32.731589,"95.78,54.40"
2024-05-28_16-38-32.764281,"79.58,91.71"
2024-05-28_16-38-32.797075,"73.62,64.40"
2024-05-28_16-38-32.829875,"68.36,37.16"
2024-05-28_16-38-32.862659,"67.67,40.05"
2024-05-28_16-38-32.895467,"66.85,39.67"
2024-05-28_16-38-32.924117,"67.10,42.66"
2024-05-28_16-38-32.956864,"68.17,58.70"
2024-05-28_16-38-32.989626,"79.10,80.56"
2024-05-28_16-38-33.022449,"65.24,53.31"
2024-05-28_16-38-33.077674,"49.70,71.88"
2024-05-28_16-38-33.101118,"65.90,71.92"
2024-05-28_16-38-33.120591,"90.62,72.98"
2024-05-28_16-38-33.150452,"89.24,83.76"
2024-05-28_16-38-33.182256,"70.71,41.55"
2024-05-28_16-38-33.214989,"61.01,41.56"
2024-05-28_16-38-33.247922,"66.76,38.01"
2024-05-28_16-38-33.280577,"74.91,39.77"
2024-05-28_16-38-33.313286,"67.57,40.34"
2024-05-28_16-38-33.346096,"66.84,50.29"
2024-05-28_16-38-33.374999,"73.84,55.32"
2024-05-28_16-38-33.407592,"74.84,67.82"
2024-05-28_16-38-33.440341,"56.44,61.90"
2024-05-28_16-38-33.473192,"75.18,73.90"
2024-05-28_16-38-33.505876,"95.80,55.82"
2024-05-28_16-38-33.538704,"102.32,62.07"
2024-05-28_16-38-33.571273,"76.28,65.97"
2024-05-28_16-38-33.600455,"63.54,39.64"
2024-05-28_16-38-33.632878,"66.51,39.55"
2024-05-28_16-38-33.665664,"67.16,41.77"
2024-05-28_16-38-33.699011,"66.44,38.94"
2024-05-28_16-38-33.731226,"74.91,39.51"
2024-05-28_16-38-33.763955,"65.86,39.46"
2024-05-28_16-38-33.796644,"58.22,79.91"
2024-05-28_16-38-33.826020,"70.20,61.56"
2024-05-28_16-38-33.858258,"64.71,55.69"
2024-05-28_16-38-33.891037,"96.21,68.46"
2024-05-28_16-38-33.923721,"93.60,40.14"
2024-05-28_16-38-33.956730,"86.20,36.59"
2024-05-28_16-38-33.989350,"65.80,50.75"
2024-05-28_16-38-34.022154,"74.62,39.42"
2024-05-28_16-38-34.050908,"67.32,40.09"
2024-05-28_16-38-34.083606,"66.85,39.80"
2024-05-28_16-38-34.116247,"68.08,40.13"
2024-05-28_16-38-34.149963,"81.77,63.74"
2024-05-28_16-38-34.181856,"51.74,83.19"
2024-05-28_16-38-34.214743,"47.57,73.96"
2024-05-28_16-38-34.247273,"72.90,75.56"
2024-05-28_16-38-34.276113,"97.36,79.53"
2024-05-28_16-38-34.308849,"91.81,82.97"
2024-05-28_16-38-34.341631,"90.21,36.34"
2024-05-28_16-38-34.374502,"54.49,37.47"
2024-05-28_16-38-34.407166,"67.54,41.79"
2024-05-28_16-38-34.440165,"66.53,38.69"
2024-05-28_16-38-34.472811,"74.91,39.47"
2024-05-28_16-38-34.501433,"68.29,37.17"
2024-05-28_16-38-34.534155,"74.74,94.38"
2024-05-28_16-38-34.566996,"82.20,54.36"
2024-05-28_16-38-34.600910,"70.06,65.66"
2024-05-28_16-38-34.632496,"66.17,78.54"
2024-05-28_16-38-34.665334,"68.08,66.02"
2024-05-28_16-38-34.698133,"64.60,49.61"
2024-05-28_16-38-34.730686,"64.95,76.75"
2024-05-28_16-38-34.759567,"59.83,29.36"
2024-05-28_16-38-34.792391,"49.32,59.34"
2024-05-28_16-38-34.825123,"56.82,76.48"
2024-05-28_16-38-34.857835,"48.08,89.99"
2024-05-28_16-38-34.890785,"51.73,65.81"
2024-05-28_16-38-34.923562,"48.01,49.56"
2024-05-28_16-38-34.956204,"53.43,19.89"
2024-05-28_16-38-34.984843,"51.76,18.23"
2024-05-28_16-38-35.017679,"59.38,19.58"
2024-05-28_16-38-35.051056,"53.90,20.64"
2024-05-28_16-38-35.083223,"54.00,18.25"
2024-05-28_16-38-35.115995,"47.00,67.67"
2024-05-28_16-38-35.148651,"53.85,61.86"
2024-05-28_16-38-35.181346,"52.82,47.41"
2024-05-28_16-38-35.211246,"49.58,70.51"
2024-05-28_16-38-35.242991,"44.01,82.28"
2024-05-28_16-38-35.275783,"44.57,66.03"
2024-05-28_16-38-35.308496,"53.11,18.59"
2024-05-28_16-38-35.345456,"48.13,21.51"
2024-05-28_16-38-35.374252,"51.57,18.36"
2024-05-28_16-38-35.406875,"51.12,18.03"
2024-05-28_16-38-35.435537,"53.62,18.75"
2024-05-28_16-38-35.468291,"57.02,47.05"
2024-05-28_16-38-35.501682,"54.21,51.69"
2024-05-28_16-38-35.533876,"40.09,57.17"
2024-05-28_16-38-35.566631,"57.06,44.37"
2024-05-28_16-38-35.599346,"44.98,79.10"
2024-05-28_16-38-35.632068,"51.54,86.22"
2024-05-28_16-38-35.660860,"38.98,48.97"
2024-05-28_16-38-35.693654,"50.23,65.74"
2024-05-28_16-38-35.726469,"49.33,48.80"
2024-05-28_16-38-35.759189,"56.98,19.52"
2024-05-28_16-38-35.791966,"52.70,20.17"
2024-05-28_16-38-35.824835,"50.46,18.91"
2024-05-28_16-38-35.857473,"48.77,18.15"
2024-05-28_16-38-35.886166,"47.61,66.35"
2024-05-28_16-38-35.918984,"45.83,59.01"
2024-05-28_16-38-35.952652,"42.03,56.93"
2024-05-28_16-38-35.984451,"54.48,45.82"
2024-05-28_16-38-36.017355,"39.02,74.44"
2024-05-28_16-38-36.050444,"43.57,87.62"
2024-05-28_16-38-36.082690,"31.68,48.70"
2024-05-28_16-38-36.111491,"40.10,15.84"
2024-05-28_16-38-36.144300,"40.14,15.72"
2024-05-28_16-38-36.177156,"43.38,13.80"
2024-05-28_16-38-36.210285,"60.52,52.99"
2024-05-28_16-38-36.242661,"58.86,65.11"
2024-05-28_16-38-36.275548,"102.30,87.41"
2024-05-28_16-38-36.308141,"101.43,78.13"
2024-05-28_16-38-36.336858,"81.79,67.51"
2024-05-28_16-38-36.369675,"105.30,67.35"
2024-05-28_16-38-36.402600,"69.35,69.34"
2024-05-28_16-38-36.435206,"42.50,67.85"
2024-05-28_16-38-36.467984,"40.28,66.39"
2024-05-28_16-38-36.500813,"40.87,66.94"
2024-05-28_16-38-36.533413,"38.40,65.16"
2024-05-28_16-38-36.562276,"48.85,81.14"
2024-05-28_16-38-36.595019,"99.48,86.42"
2024-05-28_16-38-36.627856,"84.70,75.45"
2024-05-28_16-38-36.660604,"69.54,68.21"
2024-05-28_16-38-36.693357,"63.49,76.14"
2024-05-28_16-38-36.726259,"40.76,67.39"
2024-05-28_16-38-36.758777,"39.89,66.54"
2024-05-28_16-38-36.787590,"40.71,66.88"
2024-05-28_16-38-36.820307,"43.23,66.11"
2024-05-28_16-38-36.853133,"38.65,74.13"
2024-05-28_16-38-36.885852,"40.19,67.12"
2024-05-28_16-38-36.918704,"43.27,71.36"
2024-05-28_16-38-36.951697,"75.50,40.79"
2024-05-28_16-38-36.984106,"49.88,41.39"
2024-05-28_16-38-37.012861,"45.38,11.60"
2024-05-28_16-38-37.045634,"47.91,12.88"
2024-05-28_16-38-37.078440,"53.79,13.44"
2024-05-28_16-38-37.111580,"62.28,14.61"
2024-05-28_16-38-37.143984,"70.81,17.53"
2024-05-28_16-38-37.176841,"73.68,16.20"
2024-05-28_16-38-37.209527,"79.17,16.50"
2024-05-28_16-38-37.238195,"75.82,14.44"
2024-05-28_16-38-37.270983,"70.00,56.67"
2024-05-28_16-38-37.303734,"71.23,52.62"
2024-05-28_16-38-37.336528,"59.30,62.72"
2024-05-28_16-38-37.369301,"78.48,56.44"
2024-05-28_16-38-37.402044,"66.99,63.81"
2024-05-28_16-38-37.434809,"61.85,67.94"
2024-05-28_16-38-37.463566,"61.09,69.42"
2024-05-28_16-38-37.496386,"40.35,66.25"
2024-05-28_16-38-37.529116,"50.04,44.01"
2024-05-28_16-38-37.575031,"79.79,67.37"
2024-05-28_16-38-37.594711,"93.10,16.04"
2024-05-28_16-38-37.627484,"81.52,11.49"
2024-05-28_16-38-37.660181,"73.14,9.87"
2024-05-28_16-38-37.688885,"68.55,11.43"
2024-05-28_16-38-37.721657,"62.29,12.26"
2024-05-28_16-38-37.754421,"66.24,65.08"
2024-05-28_16-38-37.787183,"61.10,73.04"
2024-05-28_16-38-37.820044,"80.36,61.28"
2024-05-28_16-38-37.852738,"67.26,48.18"
2024-05-28_16-38-37.885436,"74.83,17.09"
2024-05-28_16-38-37.918145,"73.48,14.77"
2024-05-28_16-38-37.946989,"78.81,15.33"
2024-05-28_16-38-37.979778,"74.76,15.01"
2024-05-28_16-38-38.012481,"69.68,67.88"
2024-05-28_16-38-38.045334,"70.29,40.99"
2024-05-28_16-38-38.078127,"50.58,73.56"
2024-05-28_16-38-38.110925,"66.11,48.14"
2024-05-28_16-38-38.143617,"56.32,60.80"
2024-05-28_16-38-38.172314,"54.54,52.93"
2024-05-28_16-38-38.205038,"74.75,39.50"
2024-05-28_16-38-38.237829,"67.42,39.63"
2024-05-28_16-38-38.270640,"66.83,46.48"
2024-05-28_16-38-38.303430,"76.31,58.96"
2024-05-28_16-38-38.336083,"94.81,81.56"
2024-05-28_16-38-38.368842,"84.12,78.16"
2024-05-28_16-38-38.397625,"48.42,56.48"
2024-05-28_16-38-38.430424,"80.83,54.71"
2024-05-28_16-38-38.463183,"77.52,53.57"
2024-05-28_16-38-38.495999,"66.29,58.10"
2024-05-28_16-38-38.528764,"65.13,72.97"
2024-05-28_16-38-38.561554,"66.16,80.71"
2024-05-28_16-38-38.594289,"52.22,68.49"
2024-05-28_16-38-38.623151,"67.49,32.60"
2024-05-28_16-38-38.655718,"84.80,70.12"
2024-05-28_16-38-38.688526,"84.06,82.66"
2024-05-28_16-38-38.721289,"73.90,74.46"
2024-05-28_16-38-38.754118,"61.96,36.92"
2024-05-28_16-38-38.786783,"66.89,49.42"
2024-05-28_16-38-38.819517,"70.30,57.21"
2024-05-28_16-38-38.848345,"67.46,39.35"
2024-05-28_16-38-38.881105,"67.16,41.66"
2024-05-28_16-38-38.913935,"68.75,63.35"
2024-05-28_16-38-38.946628,"83.03,92.03"
2024-05-28_16-38-38.979419,"46.44,80.08"
2024-05-28_16-38-39.012257,"63.70,54.83"
2024-05-28_16-38-39.044870,"87.59,70.54"
2024-05-28_16-38-39.073713,"56.67,73.92"
2024-05-28_16-38-39.106736,"57.60,55.34"
2024-05-28_16-38-39.139116,"65.62,42.80"
2024-05-28_16-38-39.171846,"67.45,42.80"
2024-05-28_16-38-39.204645,"69.93,66.18"
2024-05-28_16-38-39.237273,"79.20,56.64"
2024-05-28_16-38-39.270008,"60.65,58.16"
2024-05-28_16-38-39.298721,"67.24,68.22"
2024-05-28_16-38-39.331484,"77.30,70.91"
2024-05-28_16-38-39.364294,"98.26,35.98"
2024-05-28_16-38-39.397022,"81.94,33.04"
2024-05-28_16-38-39.429745,"62.11,39.46"
2024-05-28_16-38-39.462556,"66.98,41.53"
2024-05-28_16-38-39.495191,"66.58,38.95"
2024-05-28_16-38-39.524163,"75.88,37.43"
2024-05-28_16-38-39.556673,"78.26,87.58"
2024-05-28_16-38-39.589367,"51.14,63.49"
2024-05-28_16-38-39.622100,"64.36,71.14"
2024-05-28_16-38-39.654838,"89.09,70.02"
2024-05-28_16-38-39.687658,"90.00,73.89"
2024-05-28_16-38-39.720260,"91.88,62.81"
2024-05-28_16-38-39.749088,"85.71,36.98"
2024-05-28_16-38-39.781781,"77.39,35.43"
2024-05-28_16-38-39.814526,"70.97,38.57"
2024-05-28_16-38-39.847271,"67.63,40.34"
2024-05-28_16-38-39.879997,"66.85,40.50"
2024-05-28_16-38-39.912788,"67.67,53.03"
2024-05-28_16-38-39.945471,"73.00,72.68"
2024-05-28_16-38-39.974241,"75.85,68.69"
2024-05-28_16-38-40.007084,"57.01,58.35"
2024-05-28_16-38-40.039909,"88.85,70.62"
2024-05-28_16-38-40.072380,"103.23,99.49"
2024-05-28_16-38-40.105098,"102.33,62.61"
2024-05-28_16-38-40.137857,"93.41,32.30"
2024-05-28_16-38-40.170600,"61.71,36.64"
2024-05-28_16-38-40.199413,"65.32,41.61"
2024-05-28_16-38-40.232018,"66.53,38.71"
2024-05-28_16-38-40.264794,"75.02,39.82"
2024-05-28_16-38-40.297528,"76.52,61.34"
2024-05-28_16-38-40.330283,"70.09,64.00"
2024-05-28_16-38-40.363089,"58.46,66.51"
2024-05-28_16-38-40.395710,"74.36,66.14"
2024-05-28_16-38-40.424570,"94.54,72.71"
2024-05-28_16-38-40.457297,"96.65,72.05"
2024-05-28_16-38-40.490083,"96.68,50.34"
2024-05-28_16-38-40.522823,"92.74,34.58"
2024-05-28_16-38-40.555432,"58.00,34.91"
2024-05-28_16-38-40.588180,"67.72,40.00"
2024-05-28_16-38-40.620912,"66.81,39.74"
2024-05-28_16-38-40.650366,"67.16,42.21"
2024-05-28_16-38-40.682459,"68.99,69.60"
2024-05-28_16-38-40.715083,"80.51,72.12"
2024-05-28_16-38-40.747852,"53.81,66.03"
2024-05-28_16-38-40.780569,"91.28,68.35"
2024-05-28_16-38-40.813335,"75.57,70.84"
2024-05-28_16-38-40.846163,"100.45,72.79"
2024-05-28_16-38-40.874744,"96.68,32.33"
2024-05-28_16-38-40.907479,"85.95,35.74"
2024-05-28_16-38-40.940601,"56.48,40.42"
2024-05-28_16-38-40.973163,"66.75,38.42"
2024-05-28_16-38-41.005768,"74.91,40.24"
2024-05-28_16-38-41.038488,"67.44,40.40"
2024-05-28_16-38-41.071140,"72.53,61.10"
2024-05-28_16-38-41.103828,"58.67,71.36"
2024-05-28_16-38-41.132708,"56.19,70.16"
2024-05-28_16-38-41.165451,"98.25,52.36"
2024-05-28_16-38-41.198137,"97.36,81.00"
2024-05-28_16-38-41.230883,"96.84,41.77"
2024-05-28_16-38-41.263605,"93.14,34.42"
2024-05-28_16-38-41.296255,"70.17,34.05"
2024-05-28_16-38-41.328969,"64.93,39.64"
2024-05-28_16-38-41.357749,"66.79,40.09"
2024-05-28_16-38-41.390460,"67.19,42.11"
2024-05-28_16-38-41.423319,"66.44,39.00"
2024-05-28_16-38-41.456063,"82.61,85.84"
2024-05-28_16-38-41.488802,"64.52,50.05"
2024-05-28_16-38-41.521460,"69.07,68.11"
2024-05-28_16-38-41.554501,"78.46,70.67"
2024-05-28_16-38-41.582931,"105.30,77.88"
2024-05-28_16-38-41.615691,"101.48,55.17"
2024-05-28_16-38-41.648422,"86.26,45.01"
2024-05-28_16-38-41.681323,"75.98,39.29"
2024-05-28_16-38-41.713941,"61.47,37.59"
2024-05-28_16-38-41.746649,"74.74,39.16"
2024-05-28_16-38-41.779359,"67.53,39.98"
2024-05-28_16-38-41.808026,"66.82,48.96"
2024-05-28_16-38-41.840769,"69.73,74.92"
2024-05-28_16-38-41.873697,"65.41,78.25"
2024-05-28_16-38-41.906304,"59.15,76.61"
2024-05-28_16-38-41.939293,"82.93,58.51"
2024-05-28_16-38-41.974930,"62.87,39.45"
2024-05-28_16-38-42.004553,"90.29,74.39"
2024-05-28_16-38-42.033233,"82.78,31.91"
2024-05-28_16-38-42.065969,"74.58,37.52"
2024-05-28_16-38-42.098736,"66.46,39.39"
2024-05-28_16-38-42.131542,"67.28,41.77"
2024-05-28_16-38-42.164210,"66.54,39.00"
2024-05-28_16-38-42.196917,"77.15,70.61"
2024-05-28_16-38-42.234295,"62.27,36.20"
2024-05-28_16-38-42.260118,"51.47,79.93"
2024-05-28_16-38-42.291104,"75.24,66.18"
2024-05-28_16-38-42.323895,"72.97,60.33"
2024-05-28_16-38-42.356616,"89.55,33.93"
2024-05-28_16-38-42.389366,"84.32,56.51"
2024-05-28_16-38-42.422060,"75.27,36.85"
2024-05-28_16-38-42.454900,"61.34,36.63"
2024-05-28_16-38-42.483524,"74.74,39.16"
2024-05-28_16-38-42.516356,"67.54,40.40"
2024-05-28_16-38-42.549122,"67.00,42.70"
2024-05-28_16-38-42.581798,"75.13,72.62"
2024-05-28_16-38-42.614546,"61.85,93.49"
2024-05-28_16-38-42.647191,"59.22,76.70"
2024-05-28_16-38-42.679917,"85.51,74.28"
2024-05-28_16-38-42.708642,"78.32,39.94"
2024-05-28_16-38-42.741438,"102.73,56.18"
2024-05-28_16-38-42.774180,"83.25,32.42"
2024-05-28_16-38-42.806906,"72.02,36.86"
2024-05-28_16-38-42.839746,"66.44,39.49"
2024-05-28_16-38-42.872404,"67.16,42.16"
2024-05-28_16-38-42.905272,"66.43,38.95"
2024-05-28_16-38-42.933867,"77.68,68.23"
2024-05-28_16-38-42.966559,"74.72,66.65"
2024-05-28_16-38-43.000207,"57.97,75.47"
2024-05-28_16-38-43.032112,"69.93,74.01"
2024-05-28_16-38-43.064804,"61.45,54.14"
2024-05-28_16-38-43.097568,"57.55,40.87"
2024-05-28_16-38-43.130214,"65.74,48.31"
2024-05-28_16-38-43.159000,"94.36,74.63"
2024-05-28_16-38-43.191711,"83.33,82.73"
2024-05-28_16-38-43.224476,"83.76,86.63"
2024-05-28_16-38-43.257369,"72.32,81.04"
2024-05-28_16-38-43.289977,"71.79,59.79"
2024-05-28_16-38-43.322743,"65.86,65.23"
2024-05-28_16-38-43.355491,"67.12,62.73"
2024-05-28_16-38-43.384160,"72.72,63.53"
2024-05-28_16-38-43.416907,"81.57,74.56"
2024-05-28_16-38-43.449713,"93.73,74.52"
2024-05-28_16-38-43.482400,"96.95,82.69"
2024-05-28_16-38-43.515146,"96.21,79.07"
2024-05-28_16-38-43.547876,"95.55,65.77"
2024-05-28_16-38-43.580529,"88.76,86.20"
2024-05-28_16-38-43.613215,"86.84,101.89"
2024-05-28_16-38-43.642040,"72.41,76.49"
2024-05-28_16-38-43.674816,"73.25,66.89"
2024-05-28_16-38-43.707511,"69.64,48.94"
2024-05-28_16-38-43.740266,"72.09,62.59"
2024-05-28_16-38-43.772991,"72.48,60.96"
2024-05-28_16-38-43.805755,"74.95,76.88"
2024-05-28_16-38-43.838380,"87.72,73.71"
2024-05-28_16-38-43.867207,"87.52,79.28"
2024-05-28_16-38-43.900032,"95.32,73.45"
2024-05-28_16-38-43.932690,"86.14,82.43"
2024-05-28_16-38-43.965466,"85.18,82.23"
2024-05-28_16-38-43.998171,"77.84,83.62"
2024-05-28_16-38-44.030884,"76.16,71.57"
2024-05-28_16-38-44.063532,"81.27,69.17"
2024-05-28_16-38-44.092326,"70.91,67.31"
2024-05-28_16-38-44.125125,"73.64,47.44"
2024-05-28_16-38-44.157823,"71.07,62.90"
2024-05-28_16-38-44.190640,"80.31,63.12"
2024-05-28_16-38-44.223558,"82.33,85.55"
2024-05-28_16-38-44.256042,"89.80,78.32"
2024-05-28_16-38-44.288704,"87.92,75.80"
2024-05-28_16-38-44.317517,"83.07,69.93"
2024-05-28_16-38-44.350175,"89.20,93.23"
2024-05-28_16-38-44.382987,"74.03,83.12"
2024-05-28_16-38-44.415767,"72.95,76.46"
2024-05-28_16-38-44.449533,"74.91,51.80"
2024-05-28_16-38-44.481241,"72.86,62.22"
2024-05-28_16-38-44.513855,"74.62,75.18"
2024-05-28_16-38-44.542657,"78.42,76.14"
2024-05-28_16-38-44.575410,"88.93,80.25"
2024-05-28_16-38-44.608167,"85.13,76.30"
2024-05-28_16-38-44.640883,"90.01,62.37"
2024-05-28_16-38-44.673679,"79.63,92.64"
2024-05-28_16-38-44.706380,"66.99,43.47"
2024-05-28_16-38-44.739049,"67.28,72.34"
2024-05-28_16-38-44.767823,"68.89,49.33"
2024-05-28_16-38-44.800533,"95.59,64.39"
2024-05-28_16-38-44.833327,"102.18,63.15"
2024-05-28_16-38-44.866090,"101.61,34.42"
2024-05-28_16-38-44.898985,"89.75,34.00"
2024-05-28_16-38-44.931512,"89.47,36.51"
2024-05-28_16-38-44.964180,"90.18,32.75"
2024-05-28_16-38-44.992995,"81.41,29.89"
2024-05-28_16-38-45.025735,"79.81,27.22"
2024-05-28_16-38-45.058444,"67.23,65.99"
2024-05-28_16-38-45.091200,"74.89,52.51"
2024-05-28_16-38-45.123977,"88.80,52.67"
2024-05-28_16-38-45.156669,"96.48,85.93"
2024-05-28_16-38-45.189338,"91.77,74.10"
2024-05-28_16-38-45.218146,"92.10,36.52"
2024-05-28_16-38-45.250839,"95.44,32.76"
2024-05-28_16-38-45.283620,"88.27,33.90"
2024-05-28_16-38-45.316349,"88.48,30.68"
2024-05-28_16-38-45.349473,"80.91,32.12"
2024-05-28_16-38-45.381853,"75.62,53.76"
2024-05-28_16-38-45.414523,"76.62,68.38"
2024-05-28_16-38-45.443283,"74.06,64.43"
2024-05-28_16-38-45.476063,"87.23,54.47"
2024-05-28_16-38-45.508760,"76.78,55.34"
2024-05-28_16-38-45.541533,"103.03,85.21"
2024-05-28_16-38-45.574292,"103.22,59.03"
2024-05-28_16-38-45.607174,"100.75,34.25"
2024-05-28_16-38-45.639668,"88.46,34.56"
2024-05-28_16-38-45.668476,"87.52,36.06"
2024-05-28_16-38-45.701364,"87.00,30.60"
2024-05-28_16-38-45.733966,"77.89,28.68"
2024-05-28_16-38-45.766733,"78.34,52.18"
2024-05-28_16-38-45.799502,"69.66,49.51"
2024-05-28_16-38-45.832222,"81.48,53.34"
2024-05-28_16-38-45.864821,"88.20,54.21"
2024-05-28_16-38-45.897536,"102.91,84.32"
2024-05-28_16-38-45.926508,"97.22,62.70"
2024-05-28_16-38-45.959083,"93.90,37.04"
2024-05-28_16-38-45.991843,"96.03,32.25"
2024-05-28_16-38-46.024679,"89.24,32.83"
2024-05-28_16-38-46.057434,"90.43,31.73"
2024-05-28_16-38-46.090005,"81.59,33.27"
2024-05-28_16-38-46.118788,"76.00,31.46"
2024-05-28_16-38-46.151475,"79.86,24.86"
2024-05-28_16-38-46.184250,"79.11,60.11"
2024-05-28_16-38-46.217010,"95.58,64.34"
2024-05-28_16-38-46.249745,"89.37,79.16"
2024-05-28_16-38-46.282517,"102.92,83.29"
2024-05-28_16-38-46.315213,"103.38,33.77"
2024-05-28_16-38-46.343911,"98.80,33.58"
2024-05-28_16-38-46.376759,"87.48,34.00"
2024-05-28_16-38-46.409394,"86.87,35.98"
2024-05-28_16-38-46.442176,"86.06,31.13"
2024-05-28_16-38-46.474941,"75.00,27.52"
2024-05-28_16-38-46.507645,"76.21,23.84"
2024-05-28_16-38-46.540366,"72.10,60.48"
2024-05-28_16-38-46.573092,"86.56,69.46"
2024-05-28_16-38-46.602059,"95.10,77.34"
2024-05-28_16-38-46.634601,"105.21,73.02"
2024-05-28_16-38-46.667431,"99.56,36.63"
2024-05-28_16-38-46.700127,"92.61,35.90"
2024-05-28_16-38-46.732869,"94.64,32.33"
2024-05-28_16-38-46.774737,"86.73,34.23"
2024-05-28_16-38-46.798821,"85.18,29.97"
2024-05-28_16-38-46.827006,"78.80,31.15"
2024-05-28_16-38-46.859768,"71.44,52.03"
2024-05-28_16-38-46.892509,"75.72,65.29"
2024-05-28_16-38-46.925245,"80.80,27.51"
2024-05-28_16-38-46.958045,"96.78,69.07"
2024-05-28_16-38-46.990726,"90.26,78.90"
2024-05-28_16-38-47.023327,"100.24,55.67"
2024-05-28_16-38-47.052153,"99.21,32.69"
2024-05-28_16-38-47.084893,"95.83,32.92"
2024-05-28_16-38-47.117685,"85.94,33.91"
2024-05-28_16-38-47.150360,"84.46,35.06"
2024-05-28_16-38-47.183183,"85.14,29.97"
2024-05-28_16-38-47.215954,"72.64,26.22"
2024-05-28_16-38-47.248509,"77.45,48.58"
2024-05-28_16-38-47.277334,"85.97,57.47"
2024-05-28_16-38-47.310033,"81.23,67.53"
2024-05-28_16-38-47.342917,"103.96,81.61"
2024-05-28_16-38-47.375600,"103.23,56.21"
2024-05-28_16-38-47.408279,"92.47,35.12"
2024-05-28_16-38-47.441011,"87.04,36.27"
2024-05-28_16-38-47.473766,"90.92,32.67"
2024-05-28_16-38-47.502466,"82.32,31.21"
2024-05-28_16-38-47.535233,"82.07,28.68"
2024-05-28_16-38-47.568010,"76.62,29.21"
2024-05-28_16-38-47.600711,"72.30,49.07"
2024-05-28_16-38-47.633515,"86.64,55.97"
2024-05-28_16-38-47.666210,"92.75,52.07"
2024-05-28_16-38-47.698836,"99.34,86.19"
2024-05-28_16-38-47.727709,"95.57,62.72"
2024-05-28_16-38-47.760388,"96.39,33.76"
2024-05-28_16-38-47.793151,"93.78,31.82"
2024-05-28_16-38-47.825881,"92.36,32.83"
2024-05-28_16-38-47.858622,"83.40,33.27"
2024-05-28_16-38-47.891342,"81.93,32.56"
2024-05-28_16-38-47.924022,"80.11,27.02"
2024-05-28_16-38-47.952849,"70.06,48.61"
2024-05-28_16-38-47.985552,"80.23,51.50"
2024-05-28_16-38-48.018430,"97.43,54.32"
2024-05-28_16-38-48.050995,"91.63,83.23"
2024-05-28_16-38-48.083816,"103.36,63.40"
2024-05-28_16-38-48.116539,"100.05,32.40"
2024-05-28_16-38-48.149187,"91.06,34.71"
2024-05-28_16-38-48.177940,"86.97,36.58"
2024-05-28_16-38-48.210733,"90.32,31.21"
2024-05-28_16-38-48.243458,"81.23,29.04"
2024-05-28_16-38-48.276202,"76.47,26.93"
2024-05-28_16-38-48.308963,"69.98,53.80"
2024-05-28_16-38-48.341682,"74.14,62.43"
2024-05-28_16-38-48.374354,"92.52,54.61"
2024-05-28_16-38-48.403097,"96.09,70.00"
2024-05-28_16-38-48.435864,"99.70,76.99"
2024-05-28_16-38-48.468770,"97.67,37.49"
2024-05-28_16-38-48.501476,"94.96,33.57"
2024-05-28_16-38-48.534165,"92.39,32.67"
2024-05-28_16-38-48.566867,"91.46,33.41"
2024-05-28_16-38-48.599533,"80.63,32.69"
2024-05-28_16-38-48.628294,"80.97,32.32"
2024-05-28_16-38-48.661059,"79.65,25.05"
2024-05-28_16-38-48.693797,"76.33,69.85"
2024-05-28_16-38-48.726577,"87.63,27.85"
2024-05-28_16-38-48.759290,"93.20,73.92"
2024-05-28_16-38-48.792013,"95.63,95.29"
2024-05-28_16-38-48.824706,"104.04,34.67"
2024-05-28_16-38-48.853526,"99.69,32.18"
2024-05-28_16-38-48.886259,"90.34,35.03"
2024-05-28_16-38-48.919017,"86.23,37.03"
2024-05-28_16-38-48.951838,"87.33,31.49"
2024-05-28_16-38-48.984452,"79.46,28.86"
2024-05-28_16-38-49.017200,"73.86,24.94"
2024-05-28_16-38-49.050464,"72.15,57.62"
2024-05-28_16-38-49.078779,"84.78,43.00"
2024-05-28_16-38-49.111403,"93.09,68.12"
2024-05-28_16-38-49.144195,"93.27,76.28"
2024-05-28_16-38-49.176868,"84.79,71.98"
2024-05-28_16-38-49.209623,"78.45,46.12"
2024-05-28_16-38-49.242329,"79.32,86.31"
2024-05-28_16-38-49.275015,"93.18,72.87"
2024-05-28_16-38-49.303767,"95.47,78.99"
2024-05-28_16-38-49.336556,"89.60,67.94"
2024-05-28_16-38-49.369470,"95.51,91.28"
2024-05-28_16-38-49.401995,"82.43,83.59"
2024-05-28_16-38-49.434987,"69.10,78.25"
2024-05-28_16-38-49.467563,"73.78,62.29"
2024-05-28_16-38-49.500217,"70.87,65.49"
2024-05-28_16-38-49.528991,"72.23,62.39"
2024-05-28_16-38-49.561748,"71.99,64.17"
2024-05-28_16-38-49.594465,"82.90,75.18"
2024-05-28_16-38-49.627238,"81.45,76.34"
2024-05-28_16-38-49.659983,"96.10,73.70"
2024-05-28_16-38-49.692783,"86.25,94.45"
2024-05-28_16-38-49.725394,"79.84,79.07"
2024-05-28_16-38-49.754140,"78.30,76.05"
2024-05-28_16-38-49.786910,"73.01,82.62"
2024-05-28_16-38-49.819713,"80.61,82.82"
2024-05-28_16-38-49.852418,"75.22,67.30"
2024-05-28_16-38-49.885138,"77.24,48.28"
2024-05-28_16-38-49.918024,"72.89,63.52"
2024-05-28_16-38-49.950579,"78.13,45.74"
2024-05-28_16-38-49.983266,"77.62,87.76"
2024-05-28_16-38-50.012036,"88.09,74.38"
2024-05-28_16-38-50.044777,"85.42,73.18"
2024-05-28_16-38-50.077644,"79.18,65.23"
2024-05-28_16-38-50.110327,"83.15,85.92"
2024-05-28_16-38-50.143043,"75.71,90.57"
2024-05-28_16-38-50.175721,"75.72,73.83"
2024-05-28_16-38-50.208466,"78.70,54.39"
2024-05-28_16-38-50.237200,"74.81,67.27"
2024-05-28_16-38-50.270006,"74.35,62.81"
2024-05-28_16-38-50.302737,"74.98,64.45"
2024-05-28_16-38-50.335497,"85.43,75.37"
2024-05-28_16-38-50.368223,"81.97,76.66"
2024-05-28_16-38-50.401536,"91.47,80.52"
2024-05-28_16-38-50.433554,"78.51,77.06"
2024-05-28_16-38-50.462434,"75.30,81.60"
2024-05-28_16-38-50.495069,"76.89,85.67"
2024-05-28_16-38-50.527925,"76.81,54.80"
2024-05-28_16-38-50.560672,"67.60,61.88"
2024-05-28_16-38-50.593360,"71.02,61.13"
2024-05-28_16-38-50.626091,"76.48,76.86"
2024-05-28_16-38-50.658753,"89.46,73.38"
2024-05-28_16-38-50.687552,"102.40,89.39"
2024-05-28_16-38-50.720352,"97.68,78.13"
2024-05-28_16-38-50.753047,"79.39,83.17"
2024-05-28_16-38-50.785825,"88.73,79.20"
2024-05-28_16-38-50.818659,"68.59,73.84"
2024-05-28_16-38-50.851304,"69.65,63.67"
2024-05-28_16-38-50.883962,"63.48,46.37"
2024-05-28_16-38-50.912783,"73.16,60.94"
2024-05-28_16-38-50.945484,"71.99,77.56"
2024-05-28_16-38-50.978241,"91.70,73.54"
2024-05-28_16-38-51.011017,"92.83,81.57"
2024-05-28_16-38-51.043727,"95.83,74.49"
2024-05-28_16-38-51.076459,"94.71,71.79"
2024-05-28_16-38-51.109126,"96.39,91.15"
2024-05-28_16-38-51.137878,"87.64,87.49"
2024-05-28_16-38-51.170730,"64.99,79.12"
2024-05-28_16-38-51.203419,"64.96,46.97"
2024-05-28_16-38-51.246068,"64.76,62.75"
2024-05-28_16-38-51.269054,"75.34,63.57"
2024-05-28_16-38-51.301832,"75.11,86.80"
2024-05-28_16-38-51.334276,"86.23,73.20"
2024-05-28_16-38-51.363063,"90.68,73.67"
2024-05-28_16-38-51.396636,"93.15,73.07"
2024-05-28_16-38-51.428608,"101.27,80.09"
2024-05-28_16-38-51.461360,"91.84,81.18"
2024-05-28_16-38-51.494068,"76.29,81.81"
2024-05-28_16-38-51.526820,"74.10,74.23"
2024-05-28_16-38-51.559511,"65.47,65.73"
2024-05-28_16-38-51.588230,"69.22,63.98"
2024-05-28_16-38-51.621020,"66.87,45.32"
2024-05-28_16-38-51.653749,"78.30,76.02"
2024-05-28_16-38-51.686509,"79.70,76.08"
2024-05-28_16-38-51.719307,"103.20,72.15"
2024-05-28_16-38-51.752031,"99.78,88.70"
2024-05-28_16-38-51.784671,"100.35,67.33"
2024-05-28_16-38-51.813449,"87.81,81.38"
2024-05-28_16-38-51.846129,"85.86,81.60"
2024-05-28_16-38-51.878958,"64.43,67.59"
2024-05-28_16-38-51.911675,"63.06,60.11"
2024-05-28_16-38-51.944390,"68.48,63.16"
2024-05-28_16-38-51.977158,"80.17,74.28"
2024-05-28_16-38-52.009895,"85.27,73.90"
2024-05-28_16-38-52.038581,"90.65,81.52"
2024-05-28_16-38-52.071377,"83.62,73.95"
2024-05-28_16-38-52.104070,"85.70,74.62"
2024-05-28_16-38-52.136857,"92.74,70.07"
2024-05-28_16-38-52.169604,"97.25,91.54"
2024-05-28_16-38-52.202306,"71.89,78.10"
2024-05-28_16-38-52.235022,"59.10,71.52"
2024-05-28_16-38-52.263798,"62.96,43.98"
2024-05-28_16-38-52.296486,"78.38,74.56"
2024-05-28_16-38-52.329346,"82.98,84.81"
2024-05-28_16-38-52.362017,"89.86,73.96"
2024-05-28_16-38-52.394745,"93.80,71.10"
2024-05-28_16-38-52.427602,"94.13,87.68"
2024-05-28_16-38-52.460180,"98.39,54.31"
2024-05-28_16-38-52.488954,"93.01,87.57"
2024-05-28_16-38-52.521724,"88.07,89.66"
2024-05-28_16-38-52.554420,"65.15,73.61"
2024-05-28_16-38-52.587184,"65.13,55.77"
2024-05-28_16-38-52.619974,"61.47,61.09"
2024-05-28_16-38-52.652710,"69.98,61.06"
2024-05-28_16-38-52.685438,"73.90,63.24"
2024-05-28_16-38-52.714108,"80.32,75.30"
2024-05-28_16-38-52.746824,"90.10,75.23"
2024-05-28_16-38-52.779618,"88.33,93.67"
2024-05-28_16-38-52.812423,"85.57,64.64"
2024-05-28_16-38-52.845379,"84.01,71.53"
2024-05-28_16-38-52.877910,"81.80,87.59"
2024-05-28_16-38-52.910592,"79.72,91.32"
2024-05-28_16-38-52.943237,"75.91,59.62"
2024-05-28_16-38-52.972062,"72.04,59.83"
2024-05-28_16-38-53.004756,"63.49,55.90"
2024-05-28_16-38-53.037557,"54.07,68.63"
2024-05-28_16-38-53.070346,"62.19,74.18"
2024-05-28_16-38-53.103076,"65.87,39.12"
2024-05-28_16-38-53.135719,"74.93,38.46"
2024-05-28_16-38-53.168447,"67.52,39.57"
2024-05-28_16-38-53.197226,"66.94,39.80"
2024-05-28_16-38-53.229988,"88.04,31.93"
2024-05-28_16-38-53.262757,"70.09,87.84"
2024-05-28_16-38-53.295494,"41.33,68.14"
2024-05-28_16-38-53.328255,"35.51,73.48"
2024-05-28_16-38-53.360966,"55.41,70.97"
2024-05-28_16-38-53.393607,"44.84,80.84"
2024-05-28_16-38-53.422446,"65.87,54.61"
2024-05-28_16-38-53.462067,"67.51,39.57"
2024-05-28_16-38-53.488948,"66.87,39.73"
2024-05-28_16-38-53.520682,"67.24,41.82"
2024-05-28_16-38-53.553368,"87.70,32.33"
2024-05-28_16-38-53.586090,"78.73,65.70"
2024-05-28_16-38-53.618813,"70.00,71.71"
2024-05-28_16-38-53.647521,"41.44,69.59"
2024-05-28_16-38-53.680351,"52.99,71.82"
2024-05-28_16-38-53.713099,"50.38,79.75"
2024-05-28_16-38-53.745785,"59.95,68.36"
2024-05-28_16-38-53.778614,"65.40,42.32"
2024-05-28_16-38-53.811275,"67.42,42.36"
2024-05-28_16-38-53.844414,"66.45,38.65"
2024-05-28_16-38-53.872739,"84.86,37.32"
2024-05-28_16-38-53.905497,"77.50,49.66"
2024-05-28_16-38-53.938207,"58.48,74.14"
2024-05-28_16-38-53.971005,"40.18,66.15"
2024-05-28_16-38-54.004347,"55.53,77.01"
2024-05-28_16-38-54.036457,"59.56,63.60"
2024-05-28_16-38-54.069196,"50.26,65.27"
2024-05-28_16-38-54.097938,"71.44,55.64"
2024-05-28_16-38-54.130655,"66.45,38.48"
2024-05-28_16-38-54.163460,"74.91,39.47"
2024-05-28_16-38-54.196153,"67.65,39.69"
2024-05-28_16-38-54.228969,"76.34,28.71"
2024-05-28_16-38-54.261648,"77.54,77.25"
2024-05-28_16-38-54.295151,"56.72,76.54"
2024-05-28_16-38-54.323090,"39.84,67.09"
2024-05-28_16-38-54.355930,"54.63,70.00"
2024-05-28_16-38-54.388838,"45.61,61.16"
2024-05-28_16-38-54.421385,"69.75,80.81"
2024-05-28_16-38-54.454114,"77.13,40.91"
2024-05-28_16-38-54.486863,"67.62,39.57"
2024-05-28_16-38-54.519662,"66.93,39.62"
2024-05-28_16-38-54.548255,"68.57,37.82"
2024-05-28_16-38-54.581055,"85.95,66.21"
2024-05-28_16-38-54.613823,"65.37,72.13"
2024-05-28_16-38-54.646515,"38.31,66.32"
2024-05-28_16-38-54.679345,"36.55,70.32"
2024-05-28_16-38-54.712026,"50.09,79.08"
2024-05-28_16-38-54.745059,"55.37,63.59"
2024-05-28_16-38-54.773487,"65.25,43.79"
2024-05-28_16-38-54.806210,"67.49,39.71"
2024-05-28_16-38-54.838972,"67.12,41.82"
2024-05-28_16-38-54.871757,"67.35,38.11"
2024-05-28_16-38-54.904472,"90.00,26.08"
2024-05-28_16-38-54.937245,"66.68,76.49"
2024-05-28_16-38-54.969910,"60.44,68.29"
2024-05-28_16-38-54.998600,"42.60,66.15"
2024-05-28_16-38-55.031396,"64.94,90.39"
2024-05-28_16-38-55.064167,"42.73,69.94"
2024-05-28_16-38-55.096999,"65.94,41.11"
2024-05-28_16-38-55.129678,"67.23,41.63"
2024-05-28_16-38-55.162401,"66.45,38.53"
2024-05-28_16-38-55.195266,"74.91,39.93"
2024-05-28_16-38-55.223821,"78.38,35.82"
2024-05-28_16-38-55.256602,"76.47,50.59"
2024-05-28_16-38-55.289330,"77.24,72.30"
2024-05-28_16-38-55.322117,"53.90,85.95"
2024-05-28_16-38-55.354865,"55.89,69.01"
2024-05-28_16-38-55.387733,"45.67,70.27"
2024-05-28_16-38-55.420259,"63.21,52.15"
2024-05-28_16-38-55.448969,"66.49,38.48"
2024-05-28_16-38-55.481798,"74.87,39.51"
2024-05-28_16-38-55.514549,"67.53,39.58"
2024-05-28_16-38-55.547381,"66.84,39.80"
2024-05-28_16-38-55.580016,"91.66,25.47"
2024-05-28_16-38-55.613063,"63.69,84.18"
2024-05-28_16-38-55.645568,"37.69,66.11"
2024-05-28_16-38-55.678163,"66.58,71.25"
2024-05-28_16-38-55.706902,"45.53,58.22"
2024-05-28_16-38-55.739654,"58.50,72.33"
2024-05-28_16-38-55.772407,"74.36,39.52"
2024-05-28_16-38-55.805235,"67.46,39.09"
2024-05-28_16-38-55.837940,"66.93,39.86"
2024-05-28_16-38-55.870622,"68.30,40.68"
2024-05-28_16-38-55.903284,"83.68,51.43"
2024-05-28_16-38-55.932200,"56.19,74.82"
2024-05-28_16-38-55.964852,"66.64,66.19"
2024-05-28_16-38-55.997663,"53.14,90.88"
2024-05-28_16-38-56.030382,"44.79,65.73"
2024-05-28_16-38-56.063183,"69.85,83.59"
2024-05-28_16-38-56.095957,"67.70,40.51"
2024-05-28_16-38-56.128509,"66.74,39.27"
2024-05-28_16-38-56.157317,"67.29,41.87"
2024-05-28_16-38-56.190107,"66.50,38.96"
2024-05-28_16-38-56.222815,"83.76,29.56"
2024-05-28_16-38-56.255603,"78.56,77.22"
2024-05-28_16-38-56.288293,"55.34,71.20"
2024-05-28_16-38-56.321010,"36.77,80.63"
2024-05-28_16-38-56.353749,"37.60,71.17"
2024-05-28_16-38-56.382494,"53.64,74.54"
2024-05-28_16-38-56.415460,"74.00,78.97"
2024-05-28_16-38-56.447941,"88.35,82.18"
2024-05-28_16-38-56.480743,"98.01,73.51"
2024-05-28_16-38-56.513491,"92.04,73.17"
2024-05-28_16-38-56.546169,"89.09,85.08"
2024-05-28_16-38-56.578878,"72.40,78.77"
2024-05-28_16-38-56.607692,"62.89,62.85"
2024-05-28_16-38-56.640454,"66.69,45.91"
2024-05-28_16-38-56.673190,"71.06,61.98"
2024-05-28_16-38-56.705954,"81.15,76.89"
2024-05-28_16-38-56.738669,"84.63,84.58"
2024-05-28_16-38-56.771352,"84.53,71.97"
2024-05-28_16-38-56.804055,"81.75,77.48"
2024-05-28_16-38-56.832907,"64.43,67.45"
2024-05-28_16-38-56.865625,"91.11,92.98"
2024-05-28_16-38-56.898531,"88.52,85.38"
2024-05-28_16-38-56.931084,"78.26,78.26"
2024-05-28_16-38-56.963872,"68.42,48.40"
2024-05-28_16-38-56.996597,"72.56,61.81"
2024-05-28_16-38-57.029237,"79.14,73.70"
2024-05-28_16-38-57.058057,"84.03,74.79"
2024-05-28_16-38-57.090782,"76.71,71.15"
2024-05-28_16-38-57.123558,"91.35,87.43"
2024-05-28_16-38-57.156325,"97.25,55.01"
2024-05-28_16-38-57.189015,"95.50,90.71"
2024-05-28_16-38-57.221757,"85.21,80.37"
2024-05-28_16-38-57.254493,"63.79,69.74"
2024-05-28_16-38-57.283215,"69.02,45.35"
2024-05-28_16-38-57.315982,"65.89,61.74"
2024-05-28_16-38-57.348682,"75.73,74.74"
2024-05-28_16-38-57.381476,"81.44,75.08"
2024-05-28_16-38-57.414424,"93.22,72.87"
2024-05-28_16-38-57.446937,"104.35,80.23"
2024-05-28_16-38-57.479705,"97.16,66.27"
2024-05-28_16-38-57.508454,"89.75,79.46"
2024-05-28_16-38-57.541194,"86.89,90.88"
2024-05-28_16-38-57.573941,"74.22,80.24"
2024-05-28_16-38-57.606668,"78.73,79.53"
2024-05-28_16-38-57.639424,"69.30,47.96"
2024-05-28_16-38-57.672140,"70.05,62.61"
2024-05-28_16-38-57.720765,"66.72,46.46"
2024-05-28_16-38-57.735986,"79.74,75.80"
2024-05-28_16-38-57.766359,"78.92,86.08"
2024-05-28_16-38-57.799160,"76.68,73.48"
2024-05-28_16-38-57.831862,"67.78,57.16"
2024-05-28_16-38-57.864712,"66.63,38.93"
2024-05-28_16-38-57.897290,"77.78,51.19"
2024-05-28_16-38-57.930038,"64.95,71.85"
2024-05-28_16-38-57.958798,"38.97,74.75"
2024-05-28_16-38-57.991509,"61.47,71.51"
2024-05-28_16-38-58.024351,"51.95,70.85"
2024-05-28_16-38-58.057063,"67.15,60.11"
2024-05-28_16-38-58.089783,"66.69,37.94"
2024-05-28_16-38-58.122577,"74.98,39.03"
2024-05-28_16-38-58.155209,"67.56,39.68"
2024-05-28_16-38-58.183941,"76.61,35.85"
2024-05-28_16-38-58.216719,"86.75,48.00"
2024-05-28_16-38-58.249514,"68.95,89.72"
2024-05-28_16-38-58.282221,"32.60,71.46"
2024-05-28_16-38-58.314976,"62.07,64.87"
2024-05-28_16-38-58.348017,"48.78,61.70"
2024-05-28_16-38-58.380362,"55.35,68.12"
2024-05-28_16-38-58.409169,"74.92,39.05"
2024-05-28_16-38-58.441907,"67.51,39.09"
2024-05-28_16-38-58.474701,"66.89,39.84"
2024-05-28_16-38-58.507426,"81.59,34.23"
2024-05-28_16-38-58.540197,"84.10,62.85"
2024-05-28_16-38-58.572943,"57.23,68.33"
2024-05-28_16-38-58.605583,"55.59,69.08"
2024-05-28_16-38-58.634309,"53.47,57.69"
2024-05-28_16-38-58.667159,"42.30,63.88"
2024-05-28_16-38-58.699854,"67.22,52.63"
2024-05-28_16-38-58.732686,"66.81,38.56"
2024-05-28_16-38-58.765426,"66.85,40.16"
2024-05-28_16-38-58.798110,"67.20,42.16"
2024-05-28_16-38-58.830753,"86.22,52.21"
2024-05-28_16-38-58.863443,"65.01,72.58"
2024-05-28_16-38-58.892898,"57.79,67.14"
2024-05-28_16-38-58.925072,"39.75,66.99"
2024-05-28_16-38-58.957838,"38.80,74.57"
2024-05-28_16-38-58.990613,"62.84,69.10"
2024-05-28_16-38-59.023286,"67.94,32.02"
2024-05-28_16-38-59.055960,"66.41,39.74"
2024-05-28_16-38-59.088662,"67.28,41.32"
2024-05-28_16-38-59.117469,"66.49,38.59"
2024-05-28_16-38-59.150221,"60.86,70.66"
2024-05-28_16-38-59.182977,"77.97,52.85"
2024-05-28_16-38-59.215779,"77.71,60.94"
2024-05-28_16-38-59.248552,"98.01,71.36"
2024-05-28_16-38-59.281148,"68.11,36.87"
2024-05-28_16-38-59.316092,"72.93,38.94"
2024-05-28_16-38-59.342914,"66.59,39.09"
2024-05-28_16-38-59.375440,"67.26,42.61"
2024-05-28_16-38-59.408188,"66.32,39.07"
2024-05-28_16-38-59.440888,"76.17,39.23"
2024-05-28_16-38-59.473681,"70.93,70.46"
2024-05-28_16-38-59.506349,"75.65,91.81"
2024-05-28_16-38-59.539031,"70.64,63.55"
2024-05-28_16-38-59.567846,"83.33,86.30"
2024-05-28_16-38-59.600555,"70.67,46.14"
2024-05-28_16-38-59.633399,"47.46,57.76"
2024-05-28_16-38-59.666264,"67.95,40.45"
2024-05-28_16-38-59.699300,"66.15,38.76"
2024-05-28_16-38-59.731560,"74.76,40.33"
2024-05-28_16-38-59.764372,"67.37,39.02"
2024-05-28_16-38-59.793499,"66.81,40.21"
2024-05-28_16-38-59.825809,"77.25,35.74"
2024-05-28_16-38-59.858524,"86.61,87.36"
2024-05-28_16-38-59.891240,"56.39,72.84"
2024-05-28_16-38-59.924060,"59.27,67.28"
2024-05-28_16-38-59.965977,"64.45,71.17"
2024-05-28_16-38-59.993983,"66.64,56.49"
2024-05-28_16-39-00.018196,"74.94,39.09"
2024-05-28_16-39-00.050948,"67.56,39.68"
2024-05-28_16-39-00.084044,"66.93,39.74"
2024-05-28_16-39-00.116534,"68.31,41.48"
2024-05-28_16-39-00.149242,"82.46,48.83"
2024-05-28_16-39-00.181912,"73.28,76.06"
2024-05-28_16-39-00.214850,"50.21,61.51"
2024-05-28_16-39-00.243450,"58.93,68.15"
2024-05-28_16-39-00.276163,"71.11,53.22"
2024-05-28_16-39-00.308942,"74.47,39.85"
2024-05-28_16-39-00.342568,"67.35,39.10"
2024-05-28_16-39-00.374415,"66.88,39.74"
2024-05-28_16-39-00.407109,"70.20,53.66"
2024-05-28_16-39-00.439834,"77.88,75.34"
2024-05-28_16-39-00.468595,"61.86,61.04"
2024-05-28_16-39-00.501345,"59.84,46.20"
2024-05-28_16-39-00.534105,"76.41,64.65"
2024-05-28_16-39-00.566860,"92.97,75.25"
2024-05-28_16-39-00.599601,"85.26,63.43"
2024-05-28_16-39-00.632317,"92.82,72.81"
2024-05-28_16-39-00.665031,"114.51,81.35"
2024-05-28_16-39-00.693819,"104.67,72.92"
2024-05-28_16-39-00.726536,"99.88,50.19"
2024-05-28_16-39-00.759301,"70.55,67.78"
2024-05-28_16-39-00.792551,"71.07,59.42"
2024-05-28_16-39-00.824832,"65.55,71.14"
2024-05-28_16-39-00.857623,"80.44,75.94"
2024-05-28_16-39-00.890208,"91.79,72.14"
2024-05-28_16-39-00.919000,"89.00,70.48"
2024-05-28_16-39-00.951763,"87.66,70.57"
2024-05-28_16-39-00.984487,"113.91,86.83"
2024-05-28_16-39-01.017261,"79.74,63.17"
2024-05-28_16-39-01.049952,"64.04,76.92"
2024-05-28_16-39-01.082718,"75.97,71.67"
2024-05-28_16-39-01.115493,"67.70,71.82"
2024-05-28_16-39-01.144132,"76.71,70.79"
2024-05-28_16-39-01.176990,"67.69,71.31"
2024-05-28_16-39-01.209678,"70.70,72.70"
2024-05-28_16-39-01.242706,"89.61,69.80"
2024-05-28_16-39-01.275272,"110.08,81.13"
2024-05-28_16-39-01.307922,"100.40,80.34"
2024-05-28_16-39-01.340610,"76.03,69.20"
2024-05-28_16-39-01.369358,"82.56,88.41"
2024-05-28_16-39-01.402223,"72.81,84.19"
2024-05-28_16-39-01.434976,"63.17,45.32"
2024-05-28_16-39-01.467637,"70.17,76.64"
2024-05-28_16-39-01.500366,"72.11,77.15"
2024-05-28_16-39-01.533137,"92.50,73.38"
2024-05-28_16-39-01.565851,"73.44,82.27"
2024-05-28_16-39-01.594524,"80.81,69.73"
2024-05-28_16-39-01.627348,"85.23,65.30"
2024-05-28_16-39-01.660128,"86.23,89.48"
2024-05-28_16-39-01.692791,"76.14,76.87"
2024-05-28_16-39-01.725603,"62.03,60.63"
2024-05-28_16-39-01.758357,"67.18,63.19"
2024-05-28_16-39-01.791000,"79.55,74.17"
2024-05-28_16-39-01.819748,"78.04,72.41"
2024-05-28_16-39-01.852491,"79.07,78.88"
2024-05-28_16-39-01.885258,"99.24,79.21"
2024-05-28_16-39-01.918013,"106.81,75.77"
2024-05-28_16-39-01.950733,"91.90,71.00"
2024-05-28_16-39-01.983494,"95.16,81.14"
2024-05-28_16-39-02.016262,"78.71,78.14"
2024-05-28_16-39-02.044928,"71.37,71.49"
2024-05-28_16-39-02.077833,"61.33,73.57"
2024-05-28_16-39-02.110451,"59.17,69.22"
2024-05-28_16-39-02.143166,"87.57,79.32"
2024-05-28_16-39-02.175964,"98.43,73.20"
2024-05-28_16-39-02.208731,"100.36,80.36"
2024-05-28_16-39-02.241876,"108.27,78.19"
2024-05-28_16-39-02.274051,"86.34,65.26"
2024-05-28_16-39-02.302852,"72.03,74.62"
2024-05-28_16-39-02.345568,"65.89,55.33"
2024-05-28_16-39-02.368412,"64.85,70.42"
2024-05-28_16-39-02.401116,"89.85,73.74"
2024-05-28_16-39-02.433919,"100.32,82.96"
2024-05-28_16-39-02.466821,"91.17,74.22"
2024-05-28_16-39-02.499337,"87.94,84.10"
2024-05-28_16-39-02.528077,"72.49,72.45"
2024-05-28_16-39-02.560833,"86.71,54.96"
2024-05-28_16-39-02.593638,"75.56,89.68"
2024-05-28_16-39-02.626359,"71.00,71.29"
2024-05-28_16-39-02.659108,"66.77,43.74"
2024-05-28_16-39-02.692341,"89.60,58.83"
2024-05-28_16-39-02.724523,"86.36,86.69"
2024-05-28_16-39-02.753314,"82.40,77.80"
2024-05-28_16-39-02.786022,"78.37,86.17"
2024-05-28_16-39-02.818808,"79.33,64.90"
2024-05-28_16-39-02.851527,"62.07,49.05"
2024-05-28_16-39-02.884280,"70.41,72.91"
2024-05-28_16-39-02.917131,"63.23,77.23"
2024-05-28_16-39-02.949793,"68.80,57.97"
2024-05-28_16-39-02.978503,"83.44,43.62"
2024-05-28_16-39-03.011233,"90.72,85.52"
2024-05-28_16-39-03.043984,"96.05,72.29"
2024-05-28_16-39-03.076776,"100.91,73.80"
2024-05-28_16-39-03.109548,"100.59,72.34"
2024-05-28_16-39-03.142624,"108.54,79.16"
2024-05-28_16-39-03.174889,"98.51,77.46"
2024-05-28_16-39-03.203695,"86.80,76.43"
2024-05-28_16-39-03.236401,"76.51,64.74"
2024-05-28_16-39-03.269198,"79.19,56.82"
2024-05-28_16-39-03.301915,"78.30,72.91"
2024-05-28_16-39-03.334700,"81.70,75.06"
2024-05-28_16-39-03.367392,"93.33,72.09"
2024-05-28_16-39-03.400082,"83.17,72.66"
2024-05-28_16-39-03.428841,"93.00,75.47"
2024-05-28_16-39-03.461738,"98.78,69.66"
2024-05-28_16-39-03.494347,"95.56,86.10"
2024-05-28_16-39-03.527196,"69.95,74.75"
2024-05-28_16-39-03.559908,"68.10,52.86"
2024-05-28_16-39-03.592711,"63.77,60.17"
2024-05-28_16-39-03.625271,"77.58,73.87"
2024-05-28_16-39-03.654085,"86.42,74.05"
2024-05-28_16-39-03.686756,"76.95,71.33"
2024-05-28_16-39-03.719587,"92.26,70.99"
2024-05-28_16-39-03.752350,"76.96,85.37"
2024-05-28_16-39-03.785104,"91.77,65.84"
2024-05-28_16-39-03.817785,"86.64,66.23"
2024-05-28_16-39-03.850501,"78.27,40.95"
2024-05-28_16-39-03.879245,"67.15,62.46"
2024-05-28_16-39-03.912030,"47.53,70.96"
2024-05-28_16-39-03.944789,"53.93,76.43"
2024-05-28_16-39-03.977585,"46.48,67.75"
2024-05-28_16-39-04.010327,"50.76,62.31"
2024-05-28_16-39-04.043009,"67.91,40.53"
2024-05-28_16-39-04.075736,"66.24,38.82"
2024-05-28_16-39-04.104498,"74.84,39.34"
2024-05-28_16-39-04.137289,"77.87,29.77"
2024-05-28_16-39-04.170022,"65.68,77.34"
2024-05-28_16-39-04.202737,"61.13,76.58"
2024-05-28_16-39-04.235720,"34.98,80.39"
2024-05-28_16-39-04.268293,"42.67,72.81"
2024-05-28_16-39-04.300887,"56.58,66.63"
2024-05-28_16-39-04.329676,"66.68,41.72"
2024-05-28_16-39-04.362555,"66.56,38.10"
2024-05-28_16-39-04.395205,"74.91,39.46"
2024-05-28_16-39-04.427955,"82.66,30.79"
2024-05-28_16-39-04.460690,"62.01,78.75"
2024-05-28_16-39-04.493624,"64.79,78.38"
2024-05-28_16-39-04.526156,"51.77,78.68"
2024-05-28_16-39-04.554845,"48.81,70.83"
2024-05-28_16-39-04.587604,"40.14,78.20"
2024-05-28_16-39-04.623189,"56.06,57.10"
2024-05-28_16-39-04.656497,"66.26,38.35"
2024-05-28_16-39-04.685876,"74.97,39.41"
2024-05-28_16-39-04.718649,"67.46,39.21"
2024-05-28_16-39-04.751361,"66.06,39.20"
2024-05-28_16-39-04.780394,"89.81,50.18"
2024-05-28_16-39-04.812922,"47.48,80.96"
2024-05-28_16-39-04.845891,"40.65,67.54"
2024-05-28_16-39-04.878364,"39.98,66.39"
2024-05-28_16-39-04.911117,"51.15,71.81"
2024-05-28_16-39-04.943931,"67.23,54.96"
2024-05-28_16-39-04.976529,"74.91,38.98"
2024-05-28_16-39-05.005246,"67.61,39.63"
2024-05-28_16-39-05.037984,"66.67,39.39"
2024-05-28_16-39-05.070782,"89.44,30.79"
2024-05-28_16-39-05.103519,"58.72,86.38"
2024-05-28_16-39-05.136264,"40.36,65.77"
2024-05-28_16-39-05.169199,"40.00,66.46"
2024-05-28_16-39-05.201670,"33.16,80.94"
2024-05-28_16-39-05.234391,"66.11,53.86"
2024-05-28_16-39-05.263313,"74.86,38.99"
2024-05-28_16-39-05.296004,"67.56,39.52"
2024-05-28_16-39-05.328735,"66.96,39.81"
2024-05-28_16-39-05.361463,"77.77,33.71"
2024-05-28_16-39-05.394182,"75.78,71.19"
2024-05-28_16-39-05.426971,"39.46,67.54"
2024-05-28_16-39-05.459595,"39.56,66.13"
2024-05-28_16-39-05.488416,"37.28,73.72"
2024-05-28_16-39-05.521181,"57.72,62.04"
2024-05-28_16-39-05.553904,"74.68,39.29"
2024-05-28_16-39-05.586673,"67.56,39.68"
2024-05-28_16-39-05.619463,"66.85,39.74"
2024-05-28_16-39-05.652127,"95.63,25.82"
2024-05-28_16-39-05.684794,"54.88,80.15"
2024-05-28_16-39-05.713754,"39.42,66.78"
2024-05-28_16-39-05.746438,"39.79,66.59"
2024-05-28_16-39-05.779144,"40.56,68.01"
2024-05-28_16-39-05.812124,"50.32,66.34"
2024-05-28_16-39-05.844582,"75.52,38.48"
2024-05-28_16-39-05.877330,"67.56,39.04"
2024-05-28_16-39-05.910021,"66.99,40.57"
2024-05-28_16-39-05.940131,"94.80,52.38"
2024-05-28_16-39-05.971608,"48.01,81.37"
2024-05-28_16-39-06.004336,"40.60,67.55"
2024-05-28_16-39-06.037047,"39.83,66.33"
2024-05-28_16-39-06.069804,"40.57,66.77"
2024-05-28_16-39-06.102524,"35.46,77.15"
2024-05-28_16-39-06.135236,"75.73,38.91"
2024-05-28_16-39-06.164196,"67.63,40.05"
2024-05-28_16-39-06.196738,"66.92,39.33"
2024-05-28_16-39-06.229595,"86.51,30.43"
2024-05-28_16-39-06.262406,"54.74,86.52"
2024-05-28_16-39-06.295199,"36.61,66.00"
2024-05-28_16-39-06.327715,"40.24,66.60"
2024-05-28_16-39-06.360443,"40.05,66.79"
2024-05-28_16-39-06.389304,"35.15,76.88"
2024-05-28_16-39-06.421991,"64.97,58.87"
2024-05-28_16-39-06.454734,"67.70,39.63"
2024-05-28_16-39-06.487508,"66.89,39.75"
2024-05-28_16-39-06.520226,"78.59,35.11"
2024-05-28_16-39-06.552922,"73.66,77.42"
2024-05-28_16-39-06.585613,"70.01,68.32"
2024-05-28_16-39-06.614441,"32.58,82.93"
2024-05-28_16-39-06.647140,"60.62,79.01"
2024-05-28_16-39-06.679965,"64.89,49.81"
2024-05-28_16-39-06.712872,"66.92,55.02"
2024-05-28_16-39-06.745730,"66.89,39.62"
2024-05-28_16-39-06.778203,"66.93,39.68"
2024-05-28_16-39-06.811478,"68.07,39.10"
2024-05-28_16-39-06.839804,"100.42,75.05"
2024-05-28_16-39-06.872385,"80.02,30.63"
2024-05-28_16-39-06.905146,"70.67,65.71"
2024-05-28_16-39-06.937882,"71.47,61.30"
2024-05-28_16-39-06.970698,"73.98,76.40"
2024-05-28_16-39-07.003379,"89.93,72.67"
2024-05-28_16-39-07.036065,"82.61,75.07"
2024-05-28_16-39-07.068609,"84.96,79.39"
2024-05-28_16-39-07.097569,"82.33,80.46"
2024-05-28_16-39-07.130344,"87.60,80.72"
2024-05-28_16-39-07.163267,"72.53,81.39"
2024-05-28_16-39-07.195938,"73.42,48.48"
2024-05-28_16-39-07.228600,"67.49,62.51"
2024-05-28_16-39-07.261260,"71.78,60.82"
2024-05-28_16-39-07.290082,"75.01,64.09"
2024-05-28_16-39-07.322789,"77.92,62.90"
2024-05-28_16-39-07.355549,"80.29,45.82"
2024-05-28_16-39-07.388257,"74.18,62.71"
2024-05-28_16-39-07.421085,"70.46,63.02"
2024-05-28_16-39-07.453776,"66.70,44.27"
2024-05-28_16-39-07.486437,"72.87,53.78"
2024-05-28_16-39-07.515232,"84.74,83.86"
2024-05-28_16-39-07.548189,"96.00,65.26"
2024-05-28_16-39-07.580753,"94.83,31.46"
2024-05-28_16-39-07.613458,"84.59,32.60"
2024-05-28_16-39-07.647308,"79.72,68.44"
2024-05-28_16-39-07.679090,"77.38,64.04"
2024-05-28_16-39-07.711820,"69.14,46.42"
2024-05-28_16-39-07.744804,"67.64,73.20"
2024-05-28_16-39-07.773273,"68.96,53.07"
2024-05-28_16-39-07.806001,"92.26,98.44"
2024-05-28_16-39-07.838729,"90.38,60.52"
2024-05-28_16-39-07.871481,"92.82,32.69"
2024-05-28_16-39-07.904211,"81.20,32.27"
2024-05-28_16-39-07.936902,"81.91,53.45"
2024-05-28_16-39-07.969939,"74.91,65.16"
2024-05-28_16-39-07.998512,"68.54,63.71"
2024-05-28_16-39-08.031138,"67.83,47.25"
2024-05-28_16-39-08.063903,"70.04,77.85"
2024-05-28_16-39-08.096657,"83.54,57.94"
2024-05-28_16-39-08.129464,"94.54,78.09"
2024-05-28_16-39-08.162296,"97.48,56.38"
2024-05-28_16-39-08.194762,"89.31,35.51"
2024-05-28_16-39-08.223551,"82.38,32.80"
2024-05-28_16-39-08.256307,"83.35,68.98"
2024-05-28_16-39-08.289473,"73.33,48.73"
2024-05-28_16-39-08.321873,"69.34,64.96"
2024-05-28_16-39-08.354652,"67.19,59.00"
2024-05-28_16-39-08.387276,"87.55,49.26"
2024-05-28_16-39-08.420055,"90.83,82.74"
2024-05-28_16-39-08.448793,"98.64,50.16"
2024-05-28_16-39-08.481540,"89.57,34.44"
2024-05-28_16-39-08.514331,"87.76,34.68"
2024-05-28_16-39-08.547031,"83.95,54.07"
2024-05-28_16-39-08.579847,"76.12,67.13"
2024-05-28_16-39-08.612817,"72.19,48.41"
2024-05-28_16-39-08.645269,"64.84,63.96"
2024-05-28_16-39-08.674000,"75.77,57.08"
2024-05-28_16-39-08.706739,"90.13,69.75"
2024-05-28_16-39-08.739529,"95.94,68.33"
2024-05-28_16-39-08.772280,"89.64,35.71"
2024-05-28_16-39-08.805061,"84.85,35.13"
2024-05-28_16-39-08.837725,"85.69,52.33"
2024-05-28_16-39-08.870445,"77.82,49.82"
2024-05-28_16-39-08.900264,"73.89,64.30"
2024-05-28_16-39-08.931968,"64.57,50.43"
2024-05-28_16-39-08.964734,"72.64,61.48"
2024-05-28_16-39-08.997457,"85.30,61.90"
