timestamp,EMG
2024-05-28_13-23-29.139201,",65.98"
2024-05-28_13-23-29.139753,"72.14,77.20"
2024-05-28_13-23-29.140433,"71.64,74.28"
2024-05-28_13-23-29.140618,".05,61.08"
2024-05-28_13-23-29.140729,"68.88,68.85"
2024-05-28_13-23-29.140895,"84.99,67.82"
2024-05-28_13-23-29.141029,"70.83,71.83"
2024-05-28_13-23-29.141124,"68.45,73.46"
2024-05-28_13-23-29.141270,"57.21,64.59"
2024-05-28_13-23-29.141387,"51.46,65.13"
2024-05-28_13-23-29.141476,"66.10,65.98"
2024-05-28_13-23-29.141573,"72.14,77.20"
2024-05-28_13-23-29.141657,"71.64,74.28"
2024-05-28_13-23-30.798985,"78.46,61.34"
2024-05-28_13-23-30.826730,"74.16,65.35"
2024-05-28_13-23-30.859297,"100.46,73.27"
2024-05-28_13-23-30.891993,"85.26,60.24"
2024-05-28_13-23-30.920737,"55.69,62.86"
2024-05-28_13-23-30.953635,"76.56,63.22"
2024-05-28_13-23-30.986385,"68.07,71.76"
2024-05-28_13-23-31.019075,"55.91,68.42"
2024-05-28_13-23-31.052054,"71.79,67.31"
2024-05-28_13-23-31.084652,"71.79,69.68"
2024-05-28_13-23-31.117271,"61.17,75.97"
2024-05-28_13-23-31.146048,"86.46,72.27"
2024-05-28_13-23-31.178784,"92.88,64.76"
2024-05-28_13-23-31.211678,"83.20,58.22"
2024-05-28_13-23-31.244362,"54.02,63.68"
2024-05-28_13-23-31.277122,"68.82,71.18"
2024-05-28_13-23-31.309837,"64.55,65.92"
2024-05-28_13-23-31.342590,"57.71,68.19"
2024-05-28_13-23-31.371489,"77.23,75.10"
2024-05-28_13-23-31.404099,"82.62,66.79"
2024-05-28_13-23-31.436796,"66.61,73.32"
2024-05-28_13-23-31.469681,"85.69,72.92"
2024-05-28_13-23-31.502443,"88.80,61.36"
2024-05-28_13-23-31.535115,"53.24,54.64"
2024-05-28_13-23-31.567801,"63.79,71.18"
2024-05-28_13-23-31.596549,"62.80,65.90"
2024-05-28_13-23-31.629318,"60.85,64.99"
2024-05-28_13-23-31.662094,"56.42,71.04"
2024-05-28_13-23-31.694837,"91.00,76.65"
2024-05-28_13-23-31.727617,"70.30,70.20"
2024-05-28_13-23-31.760398,"64.94,66.33"
2024-05-28_13-23-31.793146,"84.01,71.45"
2024-05-28_13-23-31.825804,"91.42,60.22"
2024-05-28_13-23-31.854600,"63.72,75.39"
2024-05-28_13-23-31.887355,"49.46,66.30"
2024-05-28_13-23-31.920141,"75.94,65.19"
2024-05-28_13-23-31.952888,"77.35,69.39"
2024-05-28_13-23-31.985676,"63.84,81.16"
2024-05-28_13-23-32.018401,"88.35,77.97"
2024-05-28_13-23-32.051047,"65.06,70.58"
2024-05-28_13-23-32.079864,"71.80,68.75"
2024-05-28_13-23-32.112659,"100.29,70.69"
2024-05-28_13-23-32.145414,"92.09,62.72"
2024-05-28_13-23-32.178216,"53.47,63.66"
2024-05-28_13-23-32.210989,"49.68,64.86"
2024-05-28_13-23-32.243666,"77.24,66.37"
2024-05-28_13-23-32.276339,"61.42,65.66"
2024-05-28_13-23-32.305110,"79.66,85.69"
2024-05-28_13-23-32.337873,"84.78,76.65"
2024-05-28_13-23-32.370652,"67.23,69.27"
2024-05-28_13-23-32.403400,"77.24,66.72"
2024-05-28_13-23-32.436224,"104.76,73.93"
2024-05-28_13-23-32.468960,"86.52,60.40"
2024-05-28_13-23-32.501645,"54.31,63.37"
2024-05-28_13-23-32.530390,"52.30,65.36"
2024-05-28_13-23-32.563206,"74.58,65.76"
2024-05-28_13-23-32.595904,"60.43,73.95"
2024-05-28_13-23-32.628685,"70.68,66.78"
2024-05-28_13-23-32.661451,"85.62,75.39"
2024-05-28_13-23-32.694220,"66.24,68.80"
2024-05-28_13-23-32.726871,"85.63,63.89"
2024-05-28_13-23-32.755649,"98.72,75.40"
2024-05-28_13-23-32.788403,"85.06,59.34"
2024-05-28_13-23-32.821180,"55.17,64.03"
2024-05-28_13-23-32.853935,"65.61,64.36"
2024-05-28_13-23-32.886657,"66.37,72.66"
2024-05-28_13-23-32.919426,"54.98,68.36"
2024-05-28_13-23-32.952135,"67.59,78.91"
2024-05-28_13-23-32.980987,"76.10,65.41"
2024-05-28_13-23-33.013713,"65.91,72.57"
2024-05-28_13-23-33.046467,"82.70,71.36"
2024-05-28_13-23-33.079211,"89.44,60.40"
2024-05-28_13-23-33.111966,"55.67,56.80"
2024-05-28_13-23-33.144722,"39.66,63.64"
2024-05-28_13-23-33.177405,"69.03,72.32"
2024-05-28_13-23-33.206174,"62.13,65.91"
2024-05-28_13-23-33.248965,"55.17,68.43"
2024-05-28_13-23-33.271668,"90.34,76.81"
2024-05-28_13-23-33.304447,"71.32,62.28"
2024-05-28_13-23-33.337216,"69.21,72.59"
2024-05-28_13-23-33.370016,"87.97,74.54"
2024-05-28_13-23-33.402675,"90.03,60.82"
2024-05-28_13-23-33.431417,"50.40,54.88"
2024-05-28_13-23-33.464249,"63.65,72.05"
2024-05-28_13-23-33.497009,"64.82,65.20"
2024-05-28_13-23-33.529787,"57.51,66.79"
2024-05-28_13-23-33.563048,"59.69,69.89"
2024-05-28_13-23-33.595855,"61.29,81.45"
2024-05-28_13-23-33.635207,"81.61,73.44"
2024-05-28_13-23-33.657644,"69.29,67.78"
2024-05-28_13-23-33.689487,"77.31,65.23"
2024-05-28_13-23-33.722183,"90.08,61.64"
2024-05-28_13-23-33.754971,"70.04,65.96"
2024-05-28_13-23-33.787817,"51.78,73.44"
2024-05-28_13-23-33.820492,"65.47,66.73"
2024-05-28_13-23-33.853205,"57.95,74.21"
2024-05-28_13-23-33.881948,"49.50,66.97"
2024-05-28_13-23-33.914791,"92.38,74.92"
2024-05-28_13-23-33.947493,"67.43,72.30"
2024-05-28_13-23-33.980262,"63.04,69.96"
2024-05-28_13-23-34.012989,"84.31,67.11"
2024-05-28_13-23-34.045732,"102.10,63.92"
2024-05-28_13-23-34.078505,"67.86,63.13"
2024-05-28_13-23-34.107324,"56.79,66.80"
2024-05-28_13-23-34.140022,"71.06,64.31"
2024-05-28_13-23-34.172748,"70.65,64.24"
2024-05-28_13-23-34.205561,"57.38,74.22"
2024-05-28_13-23-34.238300,"93.34,72.96"
2024-05-28_13-23-34.271080,"69.20,68.44"
2024-05-28_13-23-34.303706,"65.34,67.83"
2024-05-28_13-23-34.332486,"82.44,72.60"
2024-05-28_13-23-34.365269,"103.44,67.67"
2024-05-28_13-23-34.398057,"41.71,47.13"
2024-05-28_13-23-34.430810,"52.52,67.53"
2024-05-28_13-23-34.463575,"54.45,63.66"
2024-05-28_13-23-34.496280,"72.08,72.58"
2024-05-28_13-23-34.528981,"55.19,68.02"
2024-05-28_13-23-34.576824,"92.53,72.42"
2024-05-28_13-23-34.596541,"67.50,72.29"
2024-05-28_13-23-34.627110,"65.17,64.85"
2024-05-28_13-23-34.662651,"94.48,72.46"
2024-05-28_13-23-34.688999,"101.45,60.35"
2024-05-28_13-23-34.721574,"61.50,65.42"
2024-05-28_13-23-34.754207,"55.56,65.46"
2024-05-28_13-23-34.783028,"76.10,70.83"
2024-05-28_13-23-34.815809,"64.51,68.24"
2024-05-28_13-23-34.848574,"71.03,66.02"
2024-05-28_13-23-34.881465,"88.20,70.48"
2024-05-28_13-23-34.914182,"65.91,76.63"
2024-05-28_13-23-34.946843,"73.27,71.29"
2024-05-28_13-23-34.979556,"90.05,63.48"
2024-05-28_13-23-35.008258,"62.83,68.99"
2024-05-28_13-23-35.041027,"75.74,65.08"
2024-05-28_13-23-35.073871,"47.41,70.97"
2024-05-28_13-23-35.107287,"70.53,66.05"
2024-05-28_13-23-35.139494,"61.63,67.99"
2024-05-28_13-23-35.172192,"76.59,72.19"
2024-05-28_13-23-35.204783,"82.94,60.52"
2024-05-28_13-23-35.237468,"60.42,76.38"
2024-05-28_13-23-35.266282,"74.28,71.31"
2024-05-28_13-23-35.299160,"94.32,67.37"
2024-05-28_13-23-35.331876,"73.81,60.62"
2024-05-28_13-23-35.364657,"50.32,72.57"
2024-05-28_13-23-35.397385,"50.97,64.40"
2024-05-28_13-23-35.430127,"69.03,65.43"
2024-05-28_13-23-35.462806,"58.90,67.36"
2024-05-28_13-23-35.491811,"76.49,76.55"
2024-05-28_13-23-35.524383,"68.21,67.99"
2024-05-28_13-23-35.557150,"55.33,66.12"
2024-05-28_13-23-35.589860,"86.98,69.66"
2024-05-28_13-23-35.622626,"104.41,68.22"
2024-05-28_13-23-35.655394,"59.50,71.88"
2024-05-28_13-23-35.688076,"50.82,68.79"
2024-05-28_13-23-35.716843,"54.43,64.77"
2024-05-28_13-23-35.749637,"67.60,65.06"
2024-05-28_13-23-35.782334,"54.68,66.78"
2024-05-28_13-23-35.815123,"94.94,79.15"
2024-05-28_13-23-35.847939,"65.50,72.34"
2024-05-28_13-23-35.880666,"60.70,67.10"
2024-05-28_13-23-35.913364,"90.42,71.40"
2024-05-28_13-23-35.942100,"101.04,64.75"
2024-05-28_13-23-35.974854,"56.65,60.23"
2024-05-28_13-23-36.007605,"51.95,65.65"
2024-05-28_13-23-36.040348,"72.51,65.42"
2024-05-28_13-23-36.073130,"70.15,64.33"
2024-05-28_13-23-36.105875,"67.55,74.39"
2024-05-28_13-23-36.138616,"88.03,74.80"
2024-05-28_13-23-36.167398,"63.68,71.21"
2024-05-28_13-23-36.200112,"65.50,67.84"
2024-05-28_13-23-36.232884,"93.01,74.32"
2024-05-28_13-23-36.265723,"101.55,61.74"
2024-05-28_13-23-36.298461,"61.12,64.28"
2024-05-28_13-23-36.331205,"58.17,67.20"
2024-05-28_13-23-36.363895,"68.70,63.77"
2024-05-28_13-23-36.392668,"63.90,73.13"
2024-05-28_13-23-36.425491,"67.52,69.32"
2024-05-28_13-23-36.458239,"84.68,71.32"
2024-05-28_13-23-36.490943,"59.72,71.25"
2024-05-28_13-23-36.523784,"72.06,66.50"
2024-05-28_13-23-36.556438,"94.85,73.66"
2024-05-28_13-23-36.589088,"77.82,58.05"
2024-05-28_13-23-36.617864,"52.94,65.39"
2024-05-28_13-23-36.651192,"60.01,64.48"
2024-05-28_13-23-36.683542,"68.77,71.19"
2024-05-28_13-23-36.716217,"57.40,68.59"
2024-05-28_13-23-36.748941,"82.91,66.45"
2024-05-28_13-23-36.781800,"104.38,66.98"
2024-05-28_13-23-36.814402,"60.91,75.63"
2024-05-28_13-23-36.845000,"74.37,71.77"
2024-05-28_13-23-36.875975,"90.38,63.92"
2024-05-28_13-23-36.908899,"62.51,57.44"
2024-05-28_13-23-36.941504,"47.35,64.23"
2024-05-28_13-23-36.974233,"45.05,71.23"
2024-05-28_13-23-37.006933,"68.14,67.49"
2024-05-28_13-23-37.039744,"55.80,69.04"
2024-05-28_13-23-37.068523,"74.70,70.48"
2024-05-28_13-23-37.101278,"78.56,68.77"
2024-05-28_13-23-37.134034,"58.14,76.03"
2024-05-28_13-23-37.166668,"74.83,71.86"
2024-05-28_13-23-37.199514,"93.39,66.34"
2024-05-28_13-23-37.232256,"58.03,49.96"
2024-05-28_13-23-37.264925,"66.32,73.42"
2024-05-28_13-23-37.293861,"46.54,63.98"
2024-05-28_13-23-37.326521,"67.40,64.93"
2024-05-28_13-23-37.359220,"61.69,67.45"
2024-05-28_13-23-37.391967,"84.93,78.03"
2024-05-28_13-23-37.424714,"66.70,68.14"
2024-05-28_13-23-37.457543,"55.51,66.61"
2024-05-28_13-23-37.490267,"85.61,69.68"
2024-05-28_13-23-37.522921,"104.06,80.53"
2024-05-28_13-23-37.551705,"60.44,52.70"
2024-05-28_13-23-37.584461,"51.94,69.34"
2024-05-28_13-23-37.617252,"51.56,63.81"
2024-05-28_13-23-37.649973,"70.95,65.22"
2024-05-28_13-23-37.682719,"71.23,67.98"
2024-05-28_13-23-37.715476,"91.59,78.21"
2024-05-28_13-23-37.744257,"67.15,71.97"
2024-05-28_13-23-37.776979,"61.58,69.30"
2024-05-28_13-23-37.809734,"91.28,69.40"
2024-05-28_13-23-37.842470,"100.25,74.80"
2024-05-28_13-23-37.875234,"61.08,64.08"
2024-05-28_13-23-37.908066,"54.02,67.92"
2024-05-28_13-23-37.940738,"71.03,64.10"
2024-05-28_13-23-37.973462,"70.82,64.47"
2024-05-28_13-23-38.002351,"67.63,75.20"
2024-05-28_13-23-38.035204,"89.23,79.93"
2024-05-28_13-23-38.067749,"45.81,68.80"
2024-05-28_13-23-38.100534,"71.20,67.22"
2024-05-28_13-23-38.133296,"93.68,72.28"
2024-05-28_13-23-38.166067,"77.12,58.29"
2024-05-28_13-23-38.198672,"47.04,64.03"
2024-05-28_13-23-38.227488,"60.69,65.81"
2024-05-28_13-23-38.260256,"69.50,64.18"
2024-05-28_13-23-38.293068,"73.77,74.59"
2024-05-28_13-23-38.325789,"65.10,68.78"
2024-05-28_13-23-38.358525,"79.49,69.66"
2024-05-28_13-23-38.391289,"55.36,73.18"
2024-05-28_13-23-38.424001,"82.90,64.77"
2024-05-28_13-23-38.452788,"94.68,73.47"
2024-05-28_13-23-38.485551,"80.31,61.04"
2024-05-28_13-23-38.518455,"65.23,64.66"
2024-05-28_13-23-38.551075,"53.74,65.94"
2024-05-28_13-23-38.583782,"59.24,71.97"
2024-05-28_13-23-38.616528,"74.44,67.62"
2024-05-28_13-23-38.649228,"70.45,67.63"
2024-05-28_13-23-38.678098,"81.95,69.53"
2024-05-28_13-23-38.710805,"53.96,75.47"
2024-05-28_13-23-38.743500,"82.67,71.49"
2024-05-28_13-23-38.776322,"94.96,65.91"
2024-05-28_13-23-38.809092,"62.69,52.73"
2024-05-28_13-23-38.841791,"68.49,63.86"
2024-05-28_13-23-38.874510,"47.00,72.74"
2024-05-28_13-23-38.903261,"66.63,66.31"
2024-05-28_13-23-38.936034,"73.99,66.91"
2024-05-28_13-23-38.968815,"73.23,71.54"
2024-05-28_13-23-39.001590,"74.78,66.66"
2024-05-28_13-23-39.034348,"46.12,77.49"
2024-05-28_13-23-39.067141,"74.38,69.60"
2024-05-28_13-23-39.099801,"99.33,66.00"
2024-05-28_13-23-39.128620,"57.76,50.31"
2024-05-28_13-23-39.161461,"66.49,73.68"
2024-05-28_13-23-39.194125,"49.22,64.52"
2024-05-28_13-23-39.226909,"66.28,65.29"
2024-05-28_13-23-39.259648,"71.42,67.67"
2024-05-28_13-23-39.292560,"72.60,79.12"
2024-05-28_13-23-39.325070,"75.76,66.79"
2024-05-28_13-23-39.353981,"52.91,67.67"
2024-05-28_13-23-39.387519,"85.16,71.39"
2024-05-28_13-23-39.419398,"104.28,74.88"
2024-05-28_13-23-39.452363,"44.19,48.43"
2024-05-28_13-23-39.484892,"53.23,69.45"
2024-05-28_13-23-39.517625,"50.85,62.99"
2024-05-28_13-23-39.550293,"80.61,65.46"
2024-05-28_13-23-39.579074,"76.57,67.49"
2024-05-28_13-23-39.611834,"65.86,79.90"
2024-05-28_13-23-39.644578,"76.78,61.36"
2024-05-28_13-23-39.677378,"57.63,70.64"
2024-05-28_13-23-39.710136,"89.47,70.33"
2024-05-28_13-23-39.742966,"99.36,80.78"
2024-05-28_13-23-39.775659,"60.18,65.55"
2024-05-28_13-23-39.804327,"53.05,68.08"
2024-05-28_13-23-39.837089,"52.09,63.79"
2024-05-28_13-23-39.870028,"70.24,64.85"
2024-05-28_13-23-39.904335,"77.82,74.73"
2024-05-28_13-23-39.935446,"61.18,75.34"
2024-05-28_13-23-39.968191,"76.21,61.51"
2024-05-28_13-23-40.000932,"60.26,71.29"
2024-05-28_13-23-40.029613,"91.23,72.80"
2024-05-28_13-23-40.062351,"62.13,71.27"
2024-05-28_13-23-40.095148,"34.54,64.00"
2024-05-28_13-23-40.127891,"80.78,66.85"
2024-05-28_13-23-40.160683,"49.84,63.34"
2024-05-28_13-23-40.193443,"73.54,72.16"
2024-05-28_13-23-40.226144,"60.58,67.97"
2024-05-28_13-23-40.254848,"65.50,75.62"
2024-05-28_13-23-40.287640,"75.92,62.81"
2024-05-28_13-23-40.320400,"66.11,66.24"
2024-05-28_13-23-40.353176,"93.18,72.97"
2024-05-28_13-23-40.385907,"104.96,70.46"
2024-05-28_13-23-40.418683,"48.80,66.30"
2024-05-28_13-23-40.451383,"51.82,66.35"
2024-05-28_13-23-40.480155,"60.48,70.72"
2024-05-28_13-23-40.512883,"68.92,67.58"
2024-05-28_13-23-40.545650,"73.36,67.62"
2024-05-28_13-23-40.578420,"64.10,74.67"
2024-05-28_13-23-40.611193,"73.05,69.97"
2024-05-28_13-23-40.643981,"68.47,71.43"
2024-05-28_13-23-40.676668,"87.08,64.13"
2024-05-28_13-23-40.709371,"93.77,69.01"
2024-05-28_13-23-40.738138,"55.68,48.64"
2024-05-28_13-23-40.770924,"59.25,72.97"
2024-05-28_13-23-40.804315,"49.08,66.61"
2024-05-28_13-23-40.836533,"83.85,66.97"
2024-05-28_13-23-40.869271,"73.08,67.02"
2024-05-28_13-23-40.901930,"57.04,72.80"
2024-05-28_13-23-40.934604,"71.90,72.52"
2024-05-28_13-23-40.963383,"68.95,71.85"
2024-05-28_13-23-40.996162,"91.53,65.48"
2024-05-28_13-23-41.029010,"92.91,71.74"
2024-05-28_13-23-41.061701,"56.75,77.11"
2024-05-28_13-23-41.094430,"55.01,62.53"
2024-05-28_13-23-41.127182,"80.42,68.05"
2024-05-28_13-23-41.159994,"76.07,68.12"
2024-05-28_13-23-41.188651,"60.50,69.32"
2024-05-28_13-23-41.221426,"80.11,79.36"
2024-05-28_13-23-41.254178,"51.93,71.78"
2024-05-28_13-23-41.286964,"83.08,70.38"
2024-05-28_13-23-41.319732,"100.96,66.01"
2024-05-28_13-23-41.352426,"70.18,61.77"
2024-05-28_13-23-41.385193,"58.69,72.81"
2024-05-28_13-23-41.413954,"61.47,63.80"
2024-05-28_13-23-41.446693,"74.42,67.13"
2024-05-28_13-23-41.479487,"79.02,66.21"
2024-05-28_13-23-41.512232,"56.53,75.70"
2024-05-28_13-23-41.544978,"83.03,74.51"
2024-05-28_13-23-41.577714,"55.08,69.86"
2024-05-28_13-23-41.610417,"84.66,69.95"
2024-05-28_13-23-41.639206,"99.31,65.40"
2024-05-28_13-23-41.671966,"90.03,75.99"
2024-05-28_13-23-41.704711,"66.53,72.01"
2024-05-28_13-23-41.737467,"63.47,64.88"
2024-05-28_13-23-41.770238,"80.72,65.50"
2024-05-28_13-23-41.803025,"70.25,74.40"
2024-05-28_13-23-41.835720,"56.15,70.23"
2024-05-28_13-23-41.864438,"54.71,72.39"
2024-05-28_13-23-41.897241,"77.70,62.46"
2024-05-28_13-23-41.929988,"83.68,75.28"
2024-05-28_13-23-41.962721,"94.98,73.71"
2024-05-28_13-23-41.995506,"79.92,59.42"
2024-05-28_13-23-42.028248,"67.69,56.99"
2024-05-28_13-23-42.061000,"72.71,64.49"
2024-05-28_13-23-42.089721,"76.11,72.59"
2024-05-28_13-23-42.122509,"75.76,71.62"
2024-05-28_13-23-42.155266,"58.58,68.48"
2024-05-28_13-23-42.187996,"69.85,72.26"
2024-05-28_13-23-42.220743,"62.18,64.04"
2024-05-28_13-23-42.253663,"85.65,74.74"
2024-05-28_13-23-42.286230,"96.89,74.57"
2024-05-28_13-23-42.314981,"93.06,67.72"
2024-05-28_13-23-42.347793,"52.92,55.50"
2024-05-28_13-23-42.380763,"74.34,71.47"
2024-05-28_13-23-42.414263,"72.63,66.36"
2024-05-28_13-23-42.446524,"68.60,67.55"
2024-05-28_13-23-42.481448,"63.46,68.23"
2024-05-28_13-23-42.512219,"51.13,77.62"
2024-05-28_13-23-42.540956,"64.26,72.65"
2024-05-28_13-23-42.575058,"68.12,65.02"
2024-05-28_13-23-42.606801,"94.64,72.24"
2024-05-28_13-23-42.638572,"82.64,62.59"
2024-05-28_13-23-42.671359,"55.08,60.60"
2024-05-28_13-23-42.704269,"69.40,67.77"
2024-05-28_13-23-42.736806,"75.23,65.51"
2024-05-28_13-23-42.765555,"77.69,66.93"
2024-05-28_13-23-42.798338,"57.60,68.62"
2024-05-28_13-23-42.831644,"82.83,81.62"
2024-05-28_13-23-42.864049,"63.32,71.12"
2024-05-28_13-23-42.898461,"84.51,66.43"
2024-05-28_13-23-42.932578,"92.71,70.28"
2024-05-28_13-23-42.962551,"86.46,68.71"
2024-05-28_13-23-42.992164,"49.10,62.57"
2024-05-28_13-23-43.023967,"70.48,66.95"
2024-05-28_13-23-43.056409,"79.46,65.19"
2024-05-28_13-23-43.090341,"77.77,66.42"
2024-05-28_13-23-43.122375,"56.93,76.22"
2024-05-28_13-23-43.155344,"84.99,76.34"
2024-05-28_13-23-43.187566,"48.16,69.63"
2024-05-28_13-23-43.220168,"78.85,64.45"
2024-05-28_13-23-43.248853,"105.27,72.59"
2024-05-28_13-23-43.281679,"63.88,58.03"
2024-05-28_13-23-43.314375,"66.03,63.79"
2024-05-28_13-23-43.347123,"70.59,66.69"
2024-05-28_13-23-43.379983,"76.75,64.65"
2024-05-28_13-23-43.412885,"66.14,75.43"
2024-05-28_13-23-43.445269,"59.23,69.26"
2024-05-28_13-23-43.474202,"75.49,70.13"
2024-05-28_13-23-43.506807,"60.13,70.07"
2024-05-28_13-23-43.540161,"85.72,64.48"
2024-05-28_13-23-43.572453,"99.01,73.05"
2024-05-28_13-23-43.605163,"79.12,78.48"
2024-05-28_13-23-43.637925,"52.17,64.21"
2024-05-28_13-23-43.670592,"59.08,65.11"
2024-05-28_13-23-43.699331,"81.41,73.13"
2024-05-28_13-23-43.732137,"63.72,68.80"
2024-05-28_13-23-43.764879,"64.18,67.50"
2024-05-28_13-23-43.797633,"85.78,73.74"
2024-05-28_13-23-43.830443,"62.75,74.15"
2024-05-28_13-23-43.863139,"97.17,72.43"
2024-05-28_13-23-43.895925,"90.03,65.18"
2024-05-28_13-23-43.925167,"76.47,65.03"
2024-05-28_13-23-43.957404,"66.01,63.83"
2024-05-28_13-23-43.990169,"65.95,72.63"
2024-05-28_13-23-44.022934,"85.96,67.35"
2024-05-28_13-23-44.055706,"66.16,67.81"
2024-05-28_13-23-44.088430,"68.56,76.47"
2024-05-28_13-23-44.121085,"51.51,67.58"
2024-05-28_13-23-44.149957,"60.92,73.74"
2024-05-28_13-23-44.182666,"71.26,71.44"
2024-05-28_13-23-44.215395,"83.96,67.14"
2024-05-28_13-23-44.248205,"71.90,76.33"
2024-05-28_13-23-44.280972,"65.69,72.96"
2024-05-28_13-23-44.313730,"66.68,65.20"
2024-05-28_13-23-44.346368,"82.36,66.31"
2024-05-28_13-23-44.375106,"68.74,68.54"
2024-05-28_13-23-44.407927,"73.93,78.47"
2024-05-28_13-23-44.440658,"69.38,74.70"
2024-05-28_13-23-44.473467,"58.03,66.24"
2024-05-28_13-23-44.506190,"98.12,72.27"
2024-05-28_13-23-44.538976,"108.02,76.82"
2024-05-28_13-23-44.571669,"61.90,48.96"
2024-05-28_13-23-44.600371,"64.24,70.46"
2024-05-28_13-23-44.633129,"64.92,63.74"
2024-05-28_13-23-44.665896,"87.15,66.45"
2024-05-28_13-23-44.698664,"65.13,68.65"
2024-05-28_13-23-44.731449,"81.11,79.25"
2024-05-28_13-23-44.764194,"57.80,70.46"
2024-05-28_13-23-44.796892,"64.15,68.45"
2024-05-28_13-23-44.825652,"101.35,70.16"
2024-05-28_13-23-44.858386,"103.24,74.07"
2024-05-28_13-23-44.891152,"64.01,64.17"
2024-05-28_13-23-44.924006,"65.38,68.12"
2024-05-28_13-23-44.956703,"70.88,64.35"
2024-05-28_13-23-44.989485,"84.14,65.91"
2024-05-28_13-23-45.022149,"64.41,75.99"
2024-05-28_13-23-45.050889,"83.65,72.69"
2024-05-28_13-23-45.083831,"56.71,70.95"
2024-05-28_13-23-45.116458,"69.05,68.48"
2024-05-28_13-23-45.149191,"93.84,72.91"
2024-05-28_13-23-45.181985,"83.25,73.49"
2024-05-28_13-23-45.214728,"39.85,63.83"
2024-05-28_13-23-45.247508,"81.46,67.37"
2024-05-28_13-23-45.276176,"80.25,63.54"
2024-05-28_13-23-45.308934,"76.50,74.24"
2024-05-28_13-23-45.341715,"65.83,68.71"
2024-05-28_13-23-45.374467,"56.81,73.17"
2024-05-28_13-23-45.407252,"57.74,64.56"
2024-05-28_13-23-45.439993,"64.82,66.64"
2024-05-28_13-23-45.472752,"92.38,73.63"
2024-05-28_13-23-45.501468,"87.10,74.50"
2024-05-28_13-23-45.534254,"47.29,48.18"
2024-05-28_13-23-45.566980,"59.42,67.19"
2024-05-28_13-23-45.599736,"83.54,71.46"
2024-05-28_13-23-45.632544,"79.66,67.42"
2024-05-28_13-23-45.665282,"64.30,67.29"
2024-05-28_13-23-45.698036,"87.94,73.31"
2024-05-28_13-23-45.726715,"55.59,71.72"
2024-05-28_13-23-45.759477,"67.79,71.14"
2024-05-28_13-23-45.792213,"90.92,64.21"
2024-05-28_13-23-45.825034,"94.95,68.70"
2024-05-28_13-23-45.857833,"55.44,47.91"
2024-05-28_13-23-45.890559,"60.18,73.10"
2024-05-28_13-23-45.923238,"50.12,66.68"
2024-05-28_13-23-45.956007,"79.71,67.05"
2024-05-28_13-23-45.984759,"71.65,67.68"
2024-05-28_13-23-46.017493,"55.76,72.20"
2024-05-28_13-23-46.050283,"54.34,71.76"
2024-05-28_13-23-46.083005,"68.66,72.19"
2024-05-28_13-23-46.115887,"91.55,65.34"
2024-05-28_13-23-46.148716,"93.75,67.47"
2024-05-28_13-23-46.181298,"69.63,62.06"
2024-05-28_13-23-46.210063,"55.49,62.04"
2024-05-28_13-23-46.242750,"48.44,66.73"
2024-05-28_13-23-46.275517,"84.29,66.98"
2024-05-28_13-23-46.308293,"69.62,66.71"
2024-05-28_13-23-46.341071,"58.93,83.04"
2024-05-28_13-23-46.373869,"72.32,62.20"
2024-05-28_13-23-46.406516,"66.78,69.49"
2024-05-28_13-23-46.435254,"97.01,66.19"
2024-05-28_13-23-46.468019,"87.36,70.48"
2024-05-28_13-23-46.500854,"70.96,58.89"
2024-05-28_13-23-46.533623,"58.59,63.48"
2024-05-28_13-23-46.566417,"67.98,66.22"
2024-05-28_13-23-46.599067,"91.12,65.56"
2024-05-28_13-23-46.631774,"64.44,75.68"
2024-05-28_13-23-46.660515,"58.54,75.75"
2024-05-28_13-23-46.693303,"73.03,62.14"
2024-05-28_13-23-46.726089,"69.79,70.24"
2024-05-28_13-23-46.758829,"98.71,66.17"
2024-05-28_13-23-46.791592,"91.32,73.73"
2024-05-28_13-23-46.824346,"84.61,74.10"
2024-05-28_13-23-46.858011,"55.87,65.04"
2024-05-28_13-23-46.886012,"64.14,64.57"
2024-05-28_13-23-46.918612,"78.11,72.80"
2024-05-28_13-23-46.951344,"63.78,69.84"
2024-05-28_13-23-46.984077,"62.00,66.77"
2024-05-28_13-23-47.016841,"82.14,75.62"
2024-05-28_13-23-47.049616,"69.24,75.23"
2024-05-28_13-23-47.082345,"96.62,72.19"
2024-05-28_13-23-47.111058,"99.68,62.83"
2024-05-28_13-23-47.143871,"77.92,59.04"
2024-05-28_13-23-47.176581,"71.92,64.47"
2024-05-28_13-23-47.209369,"50.88,71.39"
2024-05-28_13-23-47.242126,"73.24,70.04"
2024-05-28_13-23-47.274830,"66.17,68.61"
2024-05-28_13-23-47.307573,"72.09,75.86"
2024-05-28_13-23-47.336326,"80.46,63.09"
2024-05-28_13-23-47.369086,"62.16,75.30"
2024-05-28_13-23-47.401854,"86.91,72.46"
2024-05-28_13-23-47.434672,"89.85,65.67"
2024-05-28_13-23-47.469644,"76.45,65.55"
2024-05-28_13-23-47.500135,"69.77,72.31"
2024-05-28_13-23-47.533452,"53.02,64.42"
2024-05-28_13-23-47.561923,"79.18,66.68"
2024-05-28_13-23-47.594400,"68.77,67.92"
2024-05-28_13-23-47.627424,"81.37,77.24"
2024-05-28_13-23-47.660437,"70.78,76.07"
2024-05-28_13-23-47.692782,"58.93,65.20"
2024-05-28_13-23-47.726056,"86.20,70.34"
2024-05-28_13-23-47.758228,"90.33,67.66"
2024-05-28_13-23-47.786909,"72.57,60.62"
2024-05-28_13-23-47.819817,"57.44,67.96"
2024-05-28_13-23-47.852555,"55.65,64.98"
2024-05-28_13-23-47.885176,"76.74,65.79"
2024-05-28_13-23-47.918317,"69.48,67.62"
2024-05-28_13-23-47.952046,"76.89,77.95"
2024-05-28_13-23-47.983366,"59.03,71.54"
2024-05-28_13-23-48.012141,"67.30,66.83"
2024-05-28_13-23-48.044912,"93.86,71.62"
2024-05-28_13-23-48.077703,"72.44,60.54"
2024-05-28_13-23-48.110445,"70.30,61.86"
2024-05-28_13-23-48.143196,"72.86,67.34"
2024-05-28_13-23-48.175894,"72.02,65.66"
2024-05-28_13-23-48.208659,"84.70,65.83"
2024-05-28_13-23-48.237395,"75.77,79.35"
2024-05-28_13-23-48.270110,"71.86,74.48"
2024-05-28_13-23-48.303008,"55.01,71.26"
2024-05-28_13-23-48.335704,"72.92,66.52"
2024-05-28_13-23-48.368577,"108.22,74.03"
2024-05-28_13-23-48.401210,"63.78,55.04"
2024-05-28_13-23-48.433870,"49.61,63.63"
2024-05-28_13-23-48.462607,"74.35,66.61"
2024-05-28_13-23-48.495401,"79.14,64.39"
2024-05-28_13-23-48.528215,"65.09,74.58"
2024-05-28_13-23-48.561271,"60.33,69.55"
2024-05-28_13-23-48.593737,"96.76,69.35"
2024-05-28_13-23-48.626472,"61.65,69.64"
2024-05-28_13-23-48.659182,"87.36,65.80"
2024-05-28_13-23-48.691883,"100.14,73.54"
2024-05-28_13-23-48.720668,"76.23,67.60"
2024-05-28_13-23-48.753422,"51.57,64.36"
2024-05-28_13-23-48.786190,"57.25,65.07"
2024-05-28_13-23-48.819003,"89.69,72.68"
2024-05-28_13-23-48.851832,"64.89,68.93"
2024-05-28_13-23-48.884425,"64.64,68.14"
2024-05-28_13-23-48.917129,"87.49,71.20"
2024-05-28_13-23-48.945961,"61.96,73.79"
2024-05-28_13-23-48.978703,"85.44,72.05"
2024-05-28_13-23-49.011482,"97.72,64.39"
2024-05-28_13-23-49.044265,"77.01,73.19"
2024-05-28_13-23-49.077005,"54.08,63.46"
2024-05-28_13-23-49.109836,"50.44,72.21"
2024-05-28_13-23-49.142467,"74.33,67.24"
2024-05-28_13-23-49.171209,"65.00,67.75"
2024-05-28_13-23-49.203970,"72.92,78.83"
2024-05-28_13-23-49.236764,"76.65,64.67"
2024-05-28_13-23-49.269495,"56.40,76.09"
2024-05-28_13-23-49.302277,"87.70,70.16"
2024-05-28_13-23-49.334973,"84.29,65.13"
2024-05-28_13-23-49.367738,"80.57,54.93"
2024-05-28_13-23-49.396426,"71.58,72.66"
2024-05-28_13-23-49.429219,"54.10,65.05"
2024-05-28_13-23-49.461949,"86.93,65.86"
2024-05-28_13-23-49.494757,"69.36,68.65"
2024-05-28_13-23-49.527479,"79.28,77.21"
2024-05-28_13-23-49.560254,"71.10,75.01"
2024-05-28_13-23-49.592970,"58.74,66.10"
2024-05-28_13-23-49.621780,"98.44,72.12"
2024-05-28_13-23-49.654556,"99.52,65.64"
2024-05-28_13-23-49.687310,"72.65,73.35"
2024-05-28_13-23-49.720016,"70.25,69.20"
2024-05-28_13-23-49.752768,"54.16,63.90"
2024-05-28_13-23-49.785496,"77.52,66.34"
2024-05-28_13-23-49.818221,"69.99,68.02"
2024-05-28_13-23-49.846972,"84.84,78.79"
2024-05-28_13-23-49.879891,"58.12,73.37"
2024-05-28_13-23-49.912581,"65.19,68.59"
2024-05-28_13-23-49.945468,"91.21,69.90"
2024-05-28_13-23-49.978294,"103.54,75.56"
2024-05-28_13-23-50.010804,"69.71,63.52"
2024-05-28_13-23-50.043518,"56.17,67.36"
2024-05-28_13-23-50.072235,"56.15,64.16"
2024-05-28_13-23-50.109164,"78.84,65.49"
2024-05-28_13-23-50.137836,"69.83,75.81"
2024-05-28_13-23-50.170731,"82.31,73.09"
2024-05-28_13-23-50.203420,"57.33,71.75"
2024-05-28_13-23-50.236062,"75.13,67.99"
2024-05-28_13-23-50.268758,"86.50,75.69"
2024-05-28_13-23-50.297518,"47.83,67.17"
2024-05-28_13-23-50.330289,"72.87,65.13"
2024-05-28_13-23-50.363153,"61.43,65.40"
2024-05-28_13-23-50.395837,"69.74,64.25"
2024-05-28_13-23-50.428560,"73.78,74.85"
2024-05-28_13-23-50.461441,"70.98,68.56"
2024-05-28_13-23-50.494032,"78.30,69.11"
2024-05-28_13-23-50.522803,"58.89,71.78"
2024-05-28_13-23-50.555601,"85.41,64.63"
2024-05-28_13-23-50.588376,"99.02,73.58"
2024-05-28_13-23-50.621178,"63.69,57.63"
2024-05-28_13-23-50.653878,"53.88,63.88"
2024-05-28_13-23-50.686661,"63.42,64.74"
2024-05-28_13-23-50.719269,"75.16,72.25"
2024-05-28_13-23-50.748132,"72.34,68.16"
2024-05-28_13-23-50.780805,"69.26,67.35"
2024-05-28_13-23-50.813719,"64.47,70.46"
2024-05-28_13-23-50.846385,"62.22,73.60"
2024-05-28_13-23-50.879144,"84.99,71.99"
2024-05-28_13-23-50.911912,"90.06,65.69"
2024-05-28_13-23-50.944571,"81.45,68.58"
2024-05-28_13-23-50.973290,"70.20,63.42"
2024-05-28_13-23-51.006062,"52.75,72.60"
2024-05-28_13-23-51.038844,"74.39,66.84"
2024-05-28_13-23-51.071684,"63.79,67.83"
2024-05-28_13-23-51.104423,"70.77,79.21"
2024-05-28_13-23-51.137177,"73.83,63.36"
2024-05-28_13-23-51.169832,"66.34,73.64"
2024-05-28_13-23-51.198534,"85.75,73.39"
2024-05-28_13-23-51.231346,"104.15,67.87"
2024-05-28_13-23-51.264120,"79.60,55.15"
2024-05-28_13-23-51.296848,"54.83,70.39"
2024-05-28_13-23-51.329660,"56.20,65.34"
2024-05-28_13-23-51.362413,"74.06,66.11"
2024-05-28_13-23-51.395110,"65.22,68.27"
2024-05-28_13-23-51.427821,"75.59,78.93"
2024-05-28_13-23-51.456617,"69.31,73.70"
2024-05-28_13-23-51.489370,"61.88,64.87"
2024-05-28_13-23-51.522187,"98.35,72.21"
2024-05-28_13-23-51.554971,"101.79,66.10"
2024-05-28_13-23-51.587759,"70.83,61.11"
2024-05-28_13-23-51.620395,"69.18,68.61"
2024-05-28_13-23-51.653058,"55.11,64.13"
2024-05-28_13-23-51.681860,"84.22,66.30"
2024-05-28_13-23-51.714656,"64.59,67.86"
2024-05-28_13-23-51.747402,"78.88,78.65"
2024-05-28_13-23-51.780158,"57.33,72.17"
2024-05-28_13-23-51.812917,"67.83,67.25"
2024-05-28_13-23-51.845741,"103.20,70.13"
2024-05-28_13-23-51.878362,"69.70,60.47"
2024-05-28_13-23-51.907147,"69.32,62.45"
2024-05-28_13-23-51.939866,"55.90,66.92"
2024-05-28_13-23-51.972700,"70.87,65.29"
2024-05-28_13-23-52.005437,"84.40,65.64"
2024-05-28_13-23-52.038206,"66.90,76.09"
2024-05-28_13-23-52.070960,"75.93,67.92"
2024-05-28_13-23-52.103722,"57.91,70.78"
2024-05-28_13-23-52.132429,"75.11,65.71"
2024-05-28_13-23-52.165243,"107.69,74.02"
2024-05-28_13-23-52.197962,"64.22,57.13"
2024-05-28_13-23-52.230743,"50.58,63.09"
2024-05-28_13-23-52.263729,"62.74,66.43"
2024-05-28_13-23-52.296818,"76.47,65.58"
2024-05-28_13-23-52.329253,"58.02,76.17"
2024-05-28_13-23-52.357861,"79.02,80.15"
2024-05-28_13-23-52.390729,"84.98,71.43"
2024-05-28_13-23-52.423683,"61.43,69.69"
2024-05-28_13-23-52.472316,"85.49,65.06"
2024-05-28_13-23-52.492804,"100.77,75.27"
2024-05-28_13-23-52.521535,"77.72,69.93"
2024-05-28_13-23-52.554180,"53.58,64.67"
2024-05-28_13-23-52.582962,"70.15,65.89"
2024-05-28_13-23-52.615739,"84.36,73.04"
2024-05-28_13-23-52.648492,"62.93,69.16"
2024-05-28_13-23-52.681292,"55.51,80.80"
2024-05-28_13-23-52.714060,"79.05,62.02"
2024-05-28_13-23-52.747773,"66.50,73.69"
2024-05-28_13-23-52.779492,"96.56,74.43"
2024-05-28_13-23-52.808246,"78.59,62.63"
2024-05-28_13-23-52.840992,"70.23,57.65"
2024-05-28_13-23-52.873827,"70.42,64.15"
2024-05-28_13-23-52.906518,"75.45,72.84"
2024-05-28_13-23-52.939232,"72.39,68.38"
2024-05-28_13-23-52.971994,"56.45,70.79"
2024-05-28_13-23-53.004707,"54.02,71.84"
2024-05-28_13-23-53.033515,"61.82,65.38"
2024-05-28_13-23-53.066222,"88.05,75.17"
2024-05-28_13-23-53.098954,"95.36,74.06"
2024-05-28_13-23-53.131716,"81.11,47.36"
2024-05-28_13-23-53.164504,"58.78,70.27"
2024-05-28_13-23-53.197243,"67.26,71.94"
2024-05-28_13-23-53.230169,"74.96,66.08"
2024-05-28_13-23-53.260997,"72.26,67.42"
2024-05-28_13-23-53.291586,"62.10,79.41"
2024-05-28_13-23-53.324289,"71.39,68.93"
2024-05-28_13-23-53.357070,"48.65,70.00"
2024-05-28_13-23-53.389806,"81.02,66.33"
2024-05-28_13-23-53.422529,"94.71,67.41"
2024-05-28_13-23-53.455230,"53.58,47.70"
2024-05-28_13-23-53.483965,"74.87,73.69"
2024-05-28_13-23-53.516735,"65.06,66.58"
2024-05-28_13-23-53.549571,"83.25,66.69"
2024-05-28_13-23-53.582453,"70.66,68.59"
2024-05-28_13-23-53.615106,"56.10,72.47"
2024-05-28_13-23-53.647855,"53.65,72.65"
2024-05-28_13-23-53.680582,"71.63,72.78"
2024-05-28_13-23-53.709238,"90.47,65.59"
2024-05-28_13-23-53.741996,"92.14,68.37"
2024-05-28_13-23-53.774793,"55.32,63.05"
2024-05-28_13-23-53.807577,"58.21,63.05"
2024-05-28_13-23-53.840304,"74.26,66.19"
2024-05-28_13-23-53.873125,"80.99,67.87"
2024-05-28_13-23-53.905792,"62.89,68.18"
2024-05-28_13-23-53.934593,"78.56,80.25"
2024-05-28_13-23-53.967319,"53.76,71.07"
2024-05-28_13-23-54.000058,"84.08,70.29"
2024-05-28_13-23-54.032809,"102.16,68.20"
2024-05-28_13-23-54.065586,"46.34,58.64"
2024-05-28_13-23-54.098326,"72.42,70.85"
2024-05-28_13-23-54.131073,"61.03,63.29"
2024-05-28_13-23-54.159782,"87.92,66.62"
2024-05-28_13-23-54.192600,"74.83,67.35"
2024-05-28_13-23-54.225315,"56.78,81.99"
2024-05-28_13-23-54.258091,"76.16,62.06"
2024-05-28_13-23-54.290852,"54.69,71.71"
2024-05-28_13-23-54.323613,"88.24,70.07"
2024-05-28_13-23-54.356311,"93.51,75.50"
2024-05-28_13-23-54.385058,"27.12,65.62"
2024-05-28_13-23-54.417881,"66.99,68.38"
2024-05-28_13-23-54.450643,"64.14,64.40"
2024-05-28_13-23-54.483350,"95.29,64.86"
2024-05-28_13-23-54.516125,"68.65,74.81"
2024-05-28_13-23-54.548830,"56.89,73.95"
2024-05-28_13-23-54.581582,"57.94,67.05"
2024-05-28_13-23-54.614311,"65.60,68.36"
2024-05-28_13-23-54.643052,"91.58,72.67"
2024-05-28_13-23-54.675864,"86.58,74.85"
2024-05-28_13-23-54.708671,"41.23,46.21"
2024-05-28_13-23-54.741339,"63.45,68.44"
2024-05-28_13-23-54.774146,"80.42,63.59"
2024-05-28_13-23-54.806812,"81.12,73.60"
2024-05-28_13-23-54.839597,"63.35,69.03"
2024-05-28_13-23-54.868339,"79.60,74.22"
2024-05-28_13-23-54.901231,"57.83,72.48"
2024-05-28_13-23-54.933952,"81.78,64.80"
2024-05-28_13-23-54.966760,"96.36,73.22"
2024-05-28_13-23-54.999406,"65.90,62.39"
2024-05-28_13-23-55.032128,"64.92,64.38"
2024-05-28_13-23-55.064826,"67.46,66.09"
2024-05-28_13-23-55.093660,"95.83,71.74"
2024-05-28_13-23-55.126389,"69.27,68.79"
2024-05-28_13-23-55.159193,"61.68,68.40"
2024-05-28_13-23-55.191915,"77.88,68.52"
2024-05-28_13-23-55.224681,"58.30,74.60"
2024-05-28_13-23-55.257397,"85.37,72.62"
2024-05-28_13-23-55.290130,"98.23,63.16"
2024-05-28_13-23-55.318886,"76.79,47.94"
2024-05-28_13-23-55.351685,"62.89,64.33"
2024-05-28_13-23-55.384413,"54.40,71.90"
2024-05-28_13-23-55.417155,"71.21,69.14"
2024-05-28_13-23-55.449934,"67.14,68.46"
2024-05-28_13-23-55.482728,"67.02,77.96"
2024-05-28_13-23-55.515746,"75.93,64.42"
2024-05-28_13-23-55.544282,"64.46,74.34"
2024-05-28_13-23-55.576948,"97.21,73.09"
2024-05-28_13-23-55.609695,"80.71,66.22"
2024-05-28_13-23-55.642430,"66.67,55.24"
2024-05-28_13-23-55.675229,"71.94,72.19"
2024-05-28_13-23-55.707961,"67.51,65.53"
2024-05-28_13-23-55.740646,"76.79,67.44"
2024-05-28_13-23-55.769373,"61.28,68.94"
2024-05-28_13-23-55.802243,"54.21,80.87"
2024-05-28_13-23-55.834942,"65.80,71.81"
2024-05-28_13-23-55.867712,"83.23,64.03"
2024-05-28_13-23-55.900435,"96.15,72.11"
2024-05-28_13-23-55.933217,"83.95,68.77"
2024-05-28_13-23-55.965885,"61.65,75.46"
2024-05-28_13-23-55.994649,"63.51,67.36"
2024-05-28_13-23-56.027460,"77.53,66.34"
2024-05-28_13-23-56.060193,"75.94,66.96"
2024-05-28_13-23-56.092970,"59.18,67.30"
2024-05-28_13-23-56.125728,"77.09,84.33"
2024-05-28_13-23-56.158481,"65.20,71.03"
2024-05-28_13-23-56.191158,"88.40,65.46"
2024-05-28_13-23-56.219957,"94.21,72.99"
2024-05-28_13-23-56.252707,"72.08,62.12"
2024-05-28_13-23-56.285442,"58.40,62.68"
2024-05-28_13-23-56.318255,"64.45,66.26"
2024-05-28_13-23-56.350977,"83.84,67.52"
2024-05-28_13-23-56.383736,"68.52,67.77"
2024-05-28_13-23-56.416511,"89.46,80.24"
2024-05-28_13-23-56.445176,"47.07,71.57"
2024-05-28_13-23-56.477958,"62.15,68.23"
2024-05-28_13-23-56.510728,"99.91,65.01"
2024-05-28_13-23-56.543485,"70.87,61.15"
2024-05-28_13-23-56.576238,"72.44,71.53"
2024-05-28_13-23-56.609049,"64.94,63.74"
2024-05-28_13-23-56.641714,"71.40,66.58"
2024-05-28_13-23-56.670465,"78.31,66.67"
2024-05-28_13-23-56.703207,"61.28,82.66"
2024-05-28_13-23-56.735980,"75.85,61.91"
2024-05-28_13-23-56.768715,"55.96,68.82"
2024-05-28_13-23-56.801511,"89.90,69.58"
2024-05-28_13-23-56.834259,"92.60,72.50"
2024-05-28_13-23-56.867113,"39.88,48.65"
2024-05-28_13-23-56.895719,"68.76,68.98"
2024-05-28_13-23-56.928489,"56.56,64.91"
2024-05-28_13-23-56.961298,"79.92,65.17"
2024-05-28_13-23-56.993990,"66.90,74.82"
2024-05-28_13-23-57.026860,"78.15,74.80"
2024-05-28_13-23-57.059549,"57.67,69.71"
2024-05-28_13-23-57.092291,"75.67,66.19"
2024-05-28_13-23-57.120998,"99.25,74.59"
2024-05-28_13-23-57.153758,"65.42,58.68"
2024-05-28_13-23-57.186621,"50.76,62.94"
2024-05-28_13-23-57.227102,"64.36,66.05"
2024-05-28_13-23-57.252162,"78.23,65.63"
2024-05-28_13-23-57.284859,"66.32,74.07"
2024-05-28_13-23-57.317524,"61.05,68.61"
2024-05-28_13-23-57.346247,"78.47,62.80"
2024-05-28_13-23-57.379013,"67.50,69.75"
2024-05-28_13-23-57.411778,"96.82,65.05"
2024-05-28_13-23-57.444560,"78.75,76.36"
2024-05-28_13-23-57.477349,"63.21,68.29"
2024-05-28_13-23-57.510064,"62.39,63.97"
2024-05-28_13-23-57.542780,"87.87,65.80"
2024-05-28_13-23-57.571517,"75.24,73.85"
2024-05-28_13-23-57.604288,"55.83,70.12"
2024-05-28_13-23-57.637087,"83.69,72.18"
2024-05-28_13-23-57.669900,"61.18,71.21"
2024-05-28_13-23-57.702632,"86.61,73.18"
2024-05-28_13-23-57.735392,"96.69,77.08"
2024-05-28_13-23-57.768086,"43.69,45.57"
2024-05-28_13-23-57.800717,"68.40,69.92"
2024-05-28_13-23-57.829595,"75.44,63.59"
2024-05-28_13-23-57.862355,"85.19,73.31"
2024-05-28_13-23-57.895096,"61.50,68.55"
2024-05-28_13-23-57.927859,"56.38,76.33"
2024-05-28_13-23-57.960981,"73.82,65.18"
2024-05-28_13-23-57.993433,"77.54,66.18"
2024-05-28_13-23-58.026007,"92.23,74.41"
2024-05-28_13-23-58.054809,"104.08,71.27"
2024-05-28_13-23-58.087706,"56.82,65.31"
2024-05-28_13-23-58.120375,"57.10,67.17"
2024-05-28_13-23-58.153114,"78.75,72.18"
2024-05-28_13-23-58.185855,"70.15,67.99"
2024-05-28_13-23-58.218583,"57.13,68.55"
2024-05-28_13-23-58.251322,"80.19,70.96"
2024-05-28_13-23-58.280076,"53.50,75.90"
2024-05-28_13-23-58.312875,"82.53,72.66"
2024-05-28_13-23-58.345589,"93.60,63.65"
2024-05-28_13-23-58.378435,"63.42,54.07"
2024-05-28_13-23-58.411144,"71.11,64.35"
2024-05-28_13-23-58.443849,"59.11,72.57"
2024-05-28_13-23-58.476548,"79.79,68.35"
2024-05-28_13-23-58.505343,"71.26,70.96"
2024-05-28_13-23-58.538130,"64.36,74.64"
2024-05-28_13-23-58.570932,"71.48,62.60"
2024-05-28_13-23-58.603659,"57.44,74.22"
2024-05-28_13-23-58.636383,"94.32,72.87"
2024-05-28_13-23-58.669124,"90.56,65.26"
2024-05-28_13-23-58.701796,"73.96,69.91"
2024-05-28_13-23-58.730620,"61.34,73.32"
2024-05-28_13-23-58.763413,"65.44,64.90"
2024-05-28_13-23-58.796109,"74.41,67.59"
2024-05-28_13-23-58.828895,"59.18,68.60"
2024-05-28_13-23-58.861665,"68.43,77.09"
2024-05-28_13-23-58.894448,"62.67,72.44"
2024-05-28_13-23-58.927065,"80.11,64.55"
2024-05-28_13-23-58.955873,"93.23,72.25"
2024-05-28_13-23-58.988628,"92.89,72.08"
2024-05-28_13-23-59.021411,"61.27,75.47"
2024-05-28_13-23-59.054125,"71.09,67.94"
2024-05-28_13-23-59.086910,"68.44,66.70"
2024-05-28_13-23-59.119664,"63.11,67.75"
2024-05-28_13-23-59.152362,"53.10,77.70"
2024-05-28_13-23-59.181139,"71.19,70.84"
2024-05-28_13-23-59.213962,"78.58,72.17"
2024-05-28_13-23-59.246672,"87.61,65.19"
2024-05-28_13-23-59.279563,"91.28,68.65"
2024-05-28_13-23-59.312244,"52.70,62.20"
2024-05-28_13-23-59.344905,"56.90,63.40"
2024-05-28_13-23-59.377635,"72.59,66.82"
2024-05-28_13-23-59.406923,"78.76,67.44"
2024-05-28_13-23-59.439455,"59.70,68.22"
2024-05-28_13-23-59.472524,"81.32,79.87"
2024-05-28_13-23-59.507693,"49.09,71.62"
2024-05-28_13-23-59.537622,"56.13,70.78"
2024-05-28_13-23-59.570321,"101.42,64.74"
2024-05-28_13-23-59.602959,"68.32,61.63"
2024-05-28_13-23-59.631763,"69.53,71.32"
2024-05-28_13-23-59.664535,"61.50,64.02"
2024-05-28_13-23-59.697409,"74.02,67.40"
2024-05-28_13-23-59.730194,"67.73,66.94"
2024-05-28_13-23-59.762747,"56.25,82.79"
2024-05-28_13-23-59.795501,"58.45,65.94"
2024-05-28_13-23-59.828210,"57.98,68.08"
2024-05-28_13-23-59.856954,"98.27,70.06"
2024-05-28_13-23-59.889691,"92.46,77.62"
2024-05-28_13-23-59.922486,"62.52,65.80"
2024-05-28_13-23-59.955234,"61.26,69.07"
2024-05-28_13-23-59.987958,"66.88,65.56"
2024-05-28_13-24-00.020900,"76.57,66.26"
2024-05-28_13-24-00.053473,"55.94,76.14"
2024-05-28_13-24-00.082193,"81.41,86.20"
2024-05-28_13-24-00.114950,"54.85,72.21"
2024-05-28_13-24-00.147733,"70.11,66.87"
2024-05-28_13-24-00.180533,"102.30,74.82"
2024-05-28_13-24-00.213251,"80.87,71.33"
2024-05-28_13-24-00.246011,"61.54,63.57"
2024-05-28_13-24-00.278702,"66.03,67.89"
2024-05-28_13-24-00.307475,"83.97,65.55"
2024-05-28_13-24-00.340287,"60.63,74.89"
2024-05-28_13-24-00.373017,"54.24,70.13"
2024-05-28_13-24-00.405743,"57.30,71.18"
2024-05-28_13-24-00.438615,"59.26,70.10"
2024-05-28_13-24-00.471381,"94.55,65.26"
2024-05-28_13-24-00.504106,"101.58,75.03"
2024-05-28_13-24-00.532811,"68.16,71.89"
2024-05-28_13-24-00.565511,"58.81,64.54"
2024-05-28_13-24-00.598336,"83.33,66.36"
2024-05-28_13-24-00.631061,"73.85,73.66"
2024-05-28_13-24-00.663783,"54.57,69.79"
2024-05-28_13-24-00.696563,"54.00,78.40"
2024-05-28_13-24-00.729287,"76.91,62.38"
2024-05-28_13-24-00.761978,"81.55,73.68"
2024-05-28_13-24-00.790757,"95.07,75.20"
2024-05-28_13-24-00.823537,"91.47,69.27"
2024-05-28_13-24-00.856337,"58.92,71.96"
2024-05-28_13-24-00.889080,"78.36,64.13"
2024-05-28_13-24-00.921807,"73.00,73.28"
2024-05-28_13-24-00.954568,"64.61,68.31"
2024-05-28_13-24-00.987234,"56.91,68.40"
2024-05-28_13-24-01.016021,"76.83,76.79"
2024-05-28_13-24-01.048805,"61.61,67.12"
2024-05-28_13-24-01.081568,"91.30,74.65"
2024-05-28_13-24-01.114329,"94.14,71.88"
2024-05-28_13-24-01.147186,"46.20,47.16"
2024-05-28_13-24-01.179834,"56.67,67.49"
2024-05-28_13-24-01.212523,"81.51,72.06"
2024-05-28_13-24-01.241314,"71.26,67.32"
2024-05-28_13-24-01.274093,"57.66,68.47"
2024-05-28_13-24-01.306827,"80.98,74.25"
2024-05-28_13-24-01.340846,"52.83,76.24"
2024-05-28_13-24-01.372508,"82.35,72.62"
2024-05-28_13-24-01.405059,"95.46,64.07"
2024-05-28_13-24-01.437802,"63.32,53.29"
2024-05-28_13-24-01.466594,"57.65,64.29"
2024-05-28_13-24-01.499368,"66.95,72.40"
2024-05-28_13-24-01.532128,"65.09,71.35"
2024-05-28_13-24-01.564845,"58.54,68.09"
2024-05-28_13-24-01.597644,"63.44,76.01"
2024-05-28_13-24-01.630432,"81.41,62.84"
2024-05-28_13-24-01.663103,"61.67,73.31"
2024-05-28_13-24-01.691811,"94.21,73.43"
2024-05-28_13-24-01.724583,"80.47,65.18"
2024-05-28_13-24-01.757366,"48.77,54.34"
2024-05-28_13-24-01.790118,"72.76,71.93"
2024-05-28_13-24-01.822899,"80.50,65.62"
2024-05-28_13-24-01.855596,"70.93,67.76"
2024-05-28_13-24-01.888313,"60.29,69.65"
2024-05-28_13-24-01.917065,"78.10,82.20"
2024-05-28_13-24-01.949891,"63.90,70.10"
2024-05-28_13-24-01.982603,"84.25,64.18"
2024-05-28_13-24-02.015359,"94.39,72.15"
2024-05-28_13-24-02.048154,"71.93,48.77"
2024-05-28_13-24-02.080892,"69.32,73.77"
2024-05-28_13-24-02.113597,"76.33,67.42"
2024-05-28_13-24-02.142321,"70.40,66.48"
2024-05-28_13-24-02.175131,"66.94,67.69"
2024-05-28_13-24-02.207910,"54.68,78.53"
2024-05-28_13-24-02.240618,"70.83,69.71"
2024-05-28_13-24-02.273372,"79.80,72.21"
2024-05-28_13-24-02.306186,"89.71,65.44"
2024-05-28_13-24-02.338880,"102.19,73.21"
2024-05-28_13-24-02.367598,"57.04,76.96"
2024-05-28_13-24-02.400341,"59.63,63.35"
2024-05-28_13-24-02.433210,"63.33,66.71"
2024-05-28_13-24-02.465934,"74.44,68.02"
2024-05-28_13-24-02.498663,"60.07,68.79"
2024-05-28_13-24-02.531717,"69.20,75.84"
2024-05-28_13-24-02.564139,"53.07,71.16"
2024-05-28_13-24-02.592890,"81.00,69.71"
2024-05-28_13-24-02.625628,"103.54,70.55"
2024-05-28_13-24-02.658473,"43.72,51.45"
2024-05-28_13-24-02.691204,"74.69,70.63"
2024-05-28_13-24-02.723978,"65.09,64.07"
2024-05-28_13-24-02.756728,"87.44,67.04"
2024-05-28_13-24-02.789398,"67.13,67.20"
2024-05-28_13-24-02.818197,"58.19,80.45"
2024-05-28_13-24-02.850937,"56.57,68.17"
2024-05-28_13-24-02.883648,"61.69,66.70"
2024-05-28_13-24-02.916459,"100.70,70.14"
2024-05-28_13-24-02.949181,"69.49,67.56"
2024-05-28_13-24-02.981978,"69.33,62.21"
2024-05-28_13-24-03.014686,"69.99,67.34"
2024-05-28_13-24-03.043418,"78.39,66.29"
2024-05-28_13-24-03.076153,"68.24,66.59"
2024-05-28_13-24-03.108961,"55.20,76.33"
2024-05-28_13-24-03.141696,"78.89,77.15"
2024-05-28_13-24-03.174514,"61.66,69.31"
2024-05-28_13-24-03.207222,"93.35,65.76"
2024-05-28_13-24-03.239937,"84.37,77.84"
2024-05-28_13-24-03.268727,"83.51,59.33"
2024-05-28_13-24-03.301416,"53.96,62.98"
2024-05-28_13-24-03.334183,"76.16,66.52"
2024-05-28_13-24-03.366965,"87.77,66.47"
2024-05-28_13-24-03.399726,"55.00,75.84"
2024-05-28_13-24-03.432621,"55.86,77.56"
2024-05-28_13-24-03.465187,"73.49,62.03"
2024-05-28_13-24-03.497906,"83.48,69.67"
2024-05-28_13-24-03.540324,"95.49,74.30"
2024-05-28_13-24-03.559570,"29.96,65.28"
2024-05-28_13-24-03.592301,"64.61,68.45"
2024-05-28_13-24-03.625017,"66.95,64.28"
2024-05-28_13-24-03.658017,"84.19,66.16"
2024-05-28_13-24-03.690501,"65.52,74.63"
2024-05-28_13-24-03.723187,"56.18,79.51"
2024-05-28_13-24-03.753134,"75.60,59.89"
2024-05-28_13-24-03.784788,"62.27,68.42"
2024-05-28_13-24-03.817537,"90.29,73.21"
2024-05-28_13-24-03.850273,"86.40,73.13"
2024-05-28_13-24-03.883030,"41.81,46.07"
2024-05-28_13-24-03.915774,"64.99,68.36"
2024-05-28_13-24-03.948469,"81.18,64.75"
2024-05-28_13-24-03.977221,"70.63,73.87"
2024-05-28_13-24-04.009984,"59.17,68.79"
2024-05-28_13-24-04.042795,"77.51,59.52"
2024-05-28_13-24-04.075534,"55.90,72.17"
2024-05-28_13-24-04.108315,"83.00,64.78"
2024-05-28_13-24-04.141030,"88.44,74.67"
2024-05-28_13-24-04.173791,"63.41,55.87"
2024-05-28_13-24-04.202508,"52.07,63.93"
2024-05-28_13-24-04.235277,"72.03,65.24"
2024-05-28_13-24-04.268024,"85.88,73.76"
2024-05-28_13-24-04.300838,"59.67,68.82"
2024-05-28_13-24-04.333585,"54.71,67.94"
2024-05-28_13-24-04.366609,"84.91,73.23"
2024-05-28_13-24-04.398993,"65.43,73.51"
2024-05-28_13-24-04.427854,"94.39,73.67"
2024-05-28_13-24-04.460540,"69.39,59.92"
2024-05-28_13-24-04.493485,"54.70,56.89"
2024-05-28_13-24-04.526089,"72.10,63.31"
2024-05-28_13-24-04.558877,"73.16,72.88"
2024-05-28_13-24-04.591552,"65.67,73.70"
2024-05-28_13-24-04.624315,"57.86,80.10"
2024-05-28_13-24-04.653075,"75.80,76.43"
2024-05-28_13-24-04.685819,"62.19,67.84"
2024-05-28_13-24-04.718562,"88.08,73.44"
2024-05-28_13-24-04.751319,"96.08,72.13"
2024-05-28_13-24-04.784065,"44.85,47.14"
2024-05-28_13-24-04.816832,"55.52,67.58"
2024-05-28_13-24-04.849563,"79.02,71.67"
2024-05-28_13-24-04.878290,"78.41,67.68"
2024-05-28_13-24-04.911052,"59.53,68.38"
2024-05-28_13-24-04.943816,"84.33,72.72"
2024-05-28_13-24-04.976588,"53.76,77.28"
2024-05-28_13-24-05.009374,"82.51,72.00"
2024-05-28_13-24-05.042144,"94.12,63.76"
2024-05-28_13-24-05.074795,"63.50,55.81"
2024-05-28_13-24-05.103585,"61.69,64.17"
2024-05-28_13-24-05.136294,"65.41,72.40"
2024-05-28_13-24-05.169103,"82.31,67.72"
2024-05-28_13-24-05.201885,"60.61,68.86"
2024-05-28_13-24-05.234655,"66.15,80.09"
2024-05-28_13-24-05.267399,"71.02,62.47"
2024-05-28_13-24-05.300185,"66.84,73.91"
2024-05-28_13-24-05.328934,"94.94,73.73"
2024-05-28_13-24-05.361583,"81.83,60.07"
2024-05-28_13-24-05.394427,"49.09,54.60"
2024-05-28_13-24-05.427182,"73.88,72.21"
2024-05-28_13-24-05.459961,"76.82,65.82"
2024-05-28_13-24-05.492667,"72.57,67.39"
2024-05-28_13-24-05.525356,"60.51,70.10"
2024-05-28_13-24-05.554093,"67.26,80.16"
2024-05-28_13-24-05.586877,"55.10,70.60"
2024-05-28_13-24-05.619613,"62.93,66.89"
2024-05-28_13-24-05.652421,"96.65,70.42"
2024-05-28_13-24-05.685157,"71.71,46.82"
2024-05-28_13-24-05.717922,"73.09,74.20"
2024-05-28_13-24-05.750613,"76.33,67.12"
2024-05-28_13-24-05.779317,"81.47,66.69"
2024-05-28_13-24-05.812155,"68.58,68.23"
2024-05-28_13-24-05.844888,"54.86,72.41"
2024-05-28_13-24-05.877647,"52.26,77.88"
2024-05-28_13-24-05.910493,"84.50,73.04"
2024-05-28_13-24-05.943197,"95.09,66.02"
2024-05-28_13-24-05.975890,"60.03,56.36"
2024-05-28_13-24-06.008613,"62.97,74.46"
2024-05-28_13-24-06.037410,"63.66,63.86"
2024-05-28_13-24-06.070144,"86.66,66.35"
2024-05-28_13-24-06.102955,"67.54,68.80"
2024-05-28_13-24-06.135649,"62.92,77.65"
2024-05-28_13-24-06.168433,"73.21,67.74"
2024-05-28_13-24-06.201172,"56.58,68.01"
2024-05-28_13-24-06.233868,"84.28,70.70"
2024-05-28_13-24-06.262655,"106.65,76.70"
2024-05-28_13-24-06.295476,"62.81,49.25"
2024-05-28_13-24-06.328184,"65.83,69.74"
2024-05-28_13-24-06.360965,"70.05,63.62"
2024-05-28_13-24-06.393685,"83.95,67.14"
2024-05-28_13-24-06.426441,"63.39,68.76"
2024-05-28_13-24-06.459169,"77.07,78.98"
2024-05-28_13-24-06.487892,"56.41,73.63"
2024-05-28_13-24-06.520651,"68.46,67.79"
2024-05-28_13-24-06.553451,"102.00,69.57"
2024-05-28_13-24-06.586192,"79.29,69.64"
2024-05-28_13-24-06.618995,"45.80,64.86"
2024-05-28_13-24-06.651737,"59.25,66.28"
2024-05-28_13-24-06.684432,"68.05,65.59"
2024-05-28_13-24-06.713165,"75.84,66.89"
2024-05-28_13-24-06.745969,"58.03,76.52"
2024-05-28_13-24-06.778692,"79.93,76.05"
2024-05-28_13-24-06.811462,"64.92,70.90"
2024-05-28_13-24-06.844258,"94.95,65.61"
2024-05-28_13-24-06.876948,"85.33,73.34"
2024-05-28_13-24-06.909639,"56.32,59.83"
2024-05-28_13-24-06.938424,"59.13,62.80"
2024-05-28_13-24-06.971214,"81.42,66.19"
2024-05-28_13-24-07.003972,"81.19,66.98"
2024-05-28_13-24-07.036721,"54.81,75.27"
2024-05-28_13-24-07.069510,"83.85,74.04"
2024-05-28_13-24-07.102312,"55.94,73.13"
2024-05-28_13-24-07.135013,"86.56,69.93"
2024-05-28_13-24-07.163726,"98.95,63.95"
2024-05-28_13-24-07.196482,"44.31,62.75"
2024-05-28_13-24-07.229239,"59.35,70.78"
2024-05-28_13-24-07.262020,"65.68,64.04"
2024-05-28_13-24-07.294762,"84.69,66.08"
2024-05-28_13-24-07.327509,"61.02,75.97"
2024-05-28_13-24-07.360235,"55.83,76.21"
2024-05-28_13-24-07.388967,"54.23,72.86"
2024-05-28_13-24-07.421702,"72.28,68.23"
2024-05-28_13-24-07.454494,"105.25,73.14"
2024-05-28_13-24-07.487274,"64.47,60.82"
2024-05-28_13-24-07.520027,"47.04,63.98"
2024-05-28_13-24-07.552777,"71.32,66.59"
2024-05-28_13-24-07.585495,"82.63,65.03"
2024-05-28_13-24-07.614247,"60.56,75.50"
2024-05-28_13-24-07.647017,"68.43,84.18"
2024-05-28_13-24-07.679776,"70.99,68.53"
2024-05-28_13-24-07.712586,"64.20,71.35"
2024-05-28_13-24-07.745282,"97.78,64.88"
2024-05-28_13-24-07.778053,"89.62,73.80"
2024-05-28_13-24-07.810776,"85.57,60.59"
2024-05-28_13-24-07.839531,"59.11,63.91"
2024-05-28_13-24-07.872287,"84.00,65.29"
2024-05-28_13-24-07.905051,"76.93,73.68"
2024-05-28_13-24-07.937789,"60.42,69.78"
2024-05-28_13-24-07.970591,"54.75,68.68"
2024-05-28_13-24-08.003348,"82.81,77.24"
2024-05-28_13-24-08.036032,"68.16,73.67"
2024-05-28_13-24-08.064776,"93.51,73.48"
2024-05-28_13-24-08.097513,"81.99,59.46"
2024-05-28_13-24-08.130290,"58.34,56.72"
2024-05-28_13-24-08.163128,"74.12,63.27"
2024-05-28_13-24-08.195817,"72.28,73.16"
2024-05-28_13-24-08.228580,"65.43,68.57"
2024-05-28_13-24-08.261309,"54.76,68.97"
2024-05-28_13-24-08.290022,"76.05,76.98"
2024-05-28_13-24-08.327541,"75.21,68.12"
2024-05-28_13-24-08.355596,"87.34,73.49"
2024-05-28_13-24-08.388320,"104.83,76.15"
2024-05-28_13-24-08.421307,"49.32,48.07"
2024-05-28_13-24-08.454039,"55.29,68.13"
2024-05-28_13-24-08.486517,"70.29,72.43"
2024-05-28_13-24-08.515411,"62.18,68.69"
2024-05-28_13-24-08.548302,"52.58,69.70"
2024-05-28_13-24-08.580835,"81.35,72.11"
2024-05-28_13-24-08.613654,"63.50,77.47"
2024-05-28_13-24-08.646420,"76.47,72.79"
2024-05-28_13-24-08.679113,"87.76,65.07"
2024-05-28_13-24-08.711836,"61.65,70.15"
2024-05-28_13-24-08.744536,"57.76,64.30"
2024-05-28_13-24-08.773312,"58.76,74.02"
2024-05-28_13-24-08.806104,"59.42,69.14"
2024-05-28_13-24-08.838843,"53.36,69.54"
2024-05-28_13-24-08.871613,"67.94,77.46"
2024-05-28_13-24-08.904420,"79.45,61.99"
2024-05-28_13-24-08.937119,"73.19,75.10"
2024-05-28_13-24-08.969783,"89.35,76.51"
2024-05-28_13-24-08.998565,"91.71,64.34"
2024-05-28_13-24-09.031434,"46.98,55.46"
2024-05-28_13-24-09.064101,"62.79,73.35"
2024-05-28_13-24-09.096907,"66.00,67.33"
2024-05-28_13-24-09.129680,"55.52,69.56"
2024-05-28_13-24-09.162396,"59.78,71.17"
2024-05-28_13-24-09.195086,"65.99,79.28"
2024-05-28_13-24-09.223871,"81.75,72.82"
2024-05-28_13-24-09.256602,"77.89,65.93"
2024-05-28_13-24-09.289386,"88.03,58.50"
2024-05-28_13-24-09.322302,"91.53,46.83"
2024-05-28_13-24-09.354966,"51.05,75.78"
2024-05-28_13-24-09.387629,"54.97,69.25"
2024-05-28_13-24-09.420708,"63.24,66.27"
2024-05-28_13-24-09.449147,"58.91,70.96"
2024-05-28_13-24-09.481969,"54.55,82.67"
2024-05-28_13-24-09.514694,"85.82,84.15"
2024-05-28_13-24-09.547540,"78.40,74.97"
2024-05-28_13-24-09.580307,"86.34,66.94"
2024-05-28_13-24-09.612902,"90.86,46.13"
2024-05-28_13-24-09.645700,"59.31,77.27"
2024-05-28_13-24-09.674561,"53.25,66.17"
2024-05-28_13-24-09.707215,"66.03,71.50"
2024-05-28_13-24-09.739954,"66.99,68.45"
2024-05-28_13-24-09.772683,"51.94,71.82"
2024-05-28_13-24-09.805448,"79.00,81.67"
2024-05-28_13-24-09.838235,"67.02,63.11"
2024-05-28_13-24-09.870932,"81.95,73.81"
2024-05-28_13-24-09.899652,"93.79,64.85"
2024-05-28_13-24-09.932428,"85.83,41.82"
2024-05-28_13-24-09.965203,"65.19,73.11"
2024-05-28_13-24-09.997948,"52.76,64.35"
2024-05-28_13-24-10.030727,"67.38,68.61"
2024-05-28_13-24-10.063468,"57.52,68.75"
2024-05-28_13-24-10.096185,"54.07,77.61"
2024-05-28_13-24-10.124893,"79.64,75.96"
2024-05-28_13-24-10.157696,"73.55,76.40"
2024-05-28_13-24-10.190439,"91.35,69.75"
2024-05-28_13-24-10.223228,"98.51,64.89"
2024-05-28_13-24-10.255965,"51.47,63.63"
2024-05-28_13-24-10.288736,"51.39,69.29"
2024-05-28_13-24-10.321407,"60.77,65.26"
2024-05-28_13-24-10.350206,"67.52,67.96"
2024-05-28_13-24-10.382964,"51.59,77.72"
2024-05-28_13-24-10.415716,"75.73,80.60"
2024-05-28_13-24-10.448464,"67.50,73.91"
2024-05-28_13-24-10.481249,"81.11,67.46"
2024-05-28_13-24-10.513999,"96.05,74.04"
2024-05-28_13-24-10.546697,"77.31,41.54"
2024-05-28_13-24-10.575451,"39.95,64.58"
2024-05-28_13-24-10.608224,"56.42,68.51"
2024-05-28_13-24-10.641008,"75.15,65.14"
2024-05-28_13-24-10.673760,"58.90,76.18"
2024-05-28_13-24-10.706544,"78.36,77.28"
2024-05-28_13-24-10.739302,"73.64,62.37"
2024-05-28_13-24-10.771976,"53.52,72.51"
2024-05-28_13-24-10.800719,"93.52,65.39"
2024-05-28_13-24-10.833493,"95.50,74.23"
2024-05-28_13-24-10.866260,"76.96,70.06"
2024-05-28_13-24-10.899041,"49.58,64.45"
2024-05-28_13-24-10.931771,"61.82,66.18"
2024-05-28_13-24-10.964596,"75.09,74.31"
2024-05-28_13-24-10.997284,"54.61,69.57"
2024-05-28_13-24-11.025986,"51.20,77.89"
2024-05-28_13-24-11.058749,"79.20,65.15"
2024-05-28_13-24-11.091510,"57.17,74.86"
2024-05-28_13-24-11.124308,"88.95,74.04"
2024-05-28_13-24-11.157071,"75.70,64.88"
2024-05-28_13-24-11.189835,"79.45,57.98"
2024-05-28_13-24-11.222558,"57.06,63.86"
2024-05-28_13-24-11.251273,"71.62,73.95"
2024-05-28_13-24-11.284013,"65.25,68.62"
2024-05-28_13-24-11.316758,"51.10,81.01"
2024-05-28_13-24-11.349563,"77.54,76.63"
2024-05-28_13-24-11.382363,"54.89,69.35"
2024-05-28_13-24-11.415038,"81.53,73.83"
2024-05-28_13-24-11.447804,"91.75,75.09"
2024-05-28_13-24-11.476494,"90.35,47.81"
2024-05-28_13-24-11.509306,"58.89,69.79"
2024-05-28_13-24-11.542113,"65.51,72.56"
2024-05-28_13-24-11.574840,"77.62,67.05"
2024-05-28_13-24-11.607670,"54.53,68.66"
2024-05-28_13-24-11.640580,"85.18,72.47"
2024-05-28_13-24-11.673072,"45.57,79.68"
2024-05-28_13-24-11.701809,"60.75,72.56"
2024-05-28_13-24-11.734557,"74.87,66.60"
2024-05-28_13-24-11.776220,"99.80,68.05"
2024-05-28_13-24-11.800147,"51.64,65.85"
2024-05-28_13-24-11.832809,"53.33,74.22"
2024-05-28_13-24-11.865688,"74.43,68.45"
2024-05-28_13-24-11.898349,"66.44,67.45"
2024-05-28_13-24-11.930996,"56.60,75.30"
2024-05-28_13-24-11.959786,"70.59,62.72"
2024-05-28_13-24-11.992580,"47.07,76.10"
2024-05-28_13-24-12.025414,"89.25,73.34"
2024-05-28_13-24-12.058141,"92.11,65.92"
2024-05-28_13-24-12.090905,"95.82,53.91"
2024-05-28_13-24-12.123633,"64.10,75.49"
2024-05-28_13-24-12.156309,"56.35,64.68"
2024-05-28_13-24-12.185069,"75.42,67.62"
2024-05-28_13-24-12.217893,"63.55,68.87"
2024-05-28_13-24-12.250620,"68.76,90.56"
2024-05-28_13-24-12.283356,"65.58,74.40"
2024-05-28_13-24-12.316188,"70.54,67.26"
2024-05-28_13-24-12.348858,"90.09,71.98"
2024-05-28_13-24-12.381664,"105.02,65.24"
2024-05-28_13-24-12.410402,"68.39,61.96"
2024-05-28_13-24-12.443117,"57.68,69.57"
2024-05-28_13-24-12.475932,"74.93,64.72"
2024-05-28_13-24-12.508704,"75.74,67.87"
2024-05-28_13-24-12.541456,"56.34,68.88"
2024-05-28_13-24-12.574227,"71.28,75.11"
2024-05-28_13-24-12.606930,"53.01,72.94"
2024-05-28_13-24-12.635693,"77.28,68.64"
2024-05-28_13-24-12.668478,"96.53,70.16"
2024-05-28_13-24-12.701303,"89.97,75.77"
2024-05-28_13-24-12.734089,"57.68,64.78"
2024-05-28_13-24-12.766705,"64.03,67.42"
2024-05-28_13-24-12.799366,"79.01,65.87"
2024-05-28_13-24-12.832127,"69.89,67.76"
2024-05-28_13-24-12.860854,"51.90,76.55"
2024-05-28_13-24-12.893663,"71.65,68.71"
2024-05-28_13-24-12.926438,"53.52,71.79"
2024-05-28_13-24-12.959217,"85.16,66.70"
2024-05-28_13-24-12.992039,"100.33,73.87"
2024-05-28_13-24-13.024722,"62.47,56.22"
2024-05-28_13-24-13.057373,"60.93,63.70"
2024-05-28_13-24-13.086147,"64.07,67.84"
2024-05-28_13-24-13.118904,"79.66,65.53"
2024-05-28_13-24-13.151660,"58.28,75.39"
2024-05-28_13-24-13.184432,"52.24,69.16"
2024-05-28_13-24-13.217217,"81.19,78.15"
2024-05-28_13-24-13.249985,"57.11,70.33"
2024-05-28_13-24-13.282704,"92.22,64.58"
2024-05-28_13-24-13.311416,"96.37,75.79"
2024-05-28_13-24-13.344168,"76.71,80.77"
2024-05-28_13-24-13.376940,"48.72,64.34"
2024-05-28_13-24-13.409714,"64.06,66.76"
2024-05-28_13-24-13.442475,"76.62,74.15"
2024-05-28_13-24-13.475216,"56.38,68.80"
2024-05-28_13-24-13.507912,"52.59,68.45"
2024-05-28_13-24-13.538112,"81.10,76.75"
2024-05-28_13-24-13.569459,"73.06,74.00"
2024-05-28_13-24-13.602239,"90.08,74.17"
2024-05-28_13-24-13.635023,"100.97,65.06"
2024-05-28_13-24-13.667780,"81.05,58.26"
2024-05-28_13-24-13.700571,"59.88,64.32"
2024-05-28_13-24-13.733180,"76.54,74.18"
2024-05-28_13-24-13.762103,"72.19,72.16"
2024-05-28_13-24-13.794708,"52.71,68.51"
2024-05-28_13-24-13.827475,"67.81,73.57"
2024-05-28_13-24-13.860228,"59.49,65.44"
2024-05-28_13-24-13.892987,"78.28,74.38"
2024-05-28_13-24-13.925836,"93.21,75.79"
2024-05-28_13-24-13.958450,"80.93,61.03"
2024-05-28_13-24-13.987201,"43.97,55.48"
2024-05-28_13-24-14.020007,"67.35,73.48"
2024-05-28_13-24-14.052741,"70.13,65.96"
2024-05-28_13-24-14.085493,"61.14,67.71"
2024-05-28_13-24-14.118217,"56.37,68.59"
2024-05-28_13-24-14.151012,"75.90,82.43"
2024-05-28_13-24-14.183693,"57.93,71.82"
2024-05-28_13-24-14.212497,"81.68,66.73"
2024-05-28_13-24-14.245265,"91.40,72.63"
2024-05-28_13-24-14.277989,"91.02,47.82"
2024-05-28_13-24-14.310759,"62.88,75.60"
2024-05-28_13-24-14.343540,"67.62,67.75"
2024-05-28_13-24-14.376368,"65.91,65.69"
2024-05-28_13-24-14.408946,"61.19,68.55"
2024-05-28_13-24-14.437790,"50.67,75.87"
2024-05-28_13-24-14.470551,"68.25,69.46"
2024-05-28_13-24-14.503339,"76.02,72.32"
2024-05-28_13-24-14.536037,"86.23,68.21"
2024-05-28_13-24-14.568926,"90.27,71.60"
2024-05-28_13-24-14.601621,"91.78,62.15"
2024-05-28_13-24-14.642662,"52.24,63.89"
2024-05-28_13-24-14.663331,"69.16,67.30"
2024-05-28_13-24-14.696026,"79.26,66.48"
2024-05-28_13-24-14.728560,"56.56,67.70"
2024-05-28_13-24-14.761473,"99.09,83.47"
2024-05-28_13-24-14.794042,"44.97,71.18"
2024-05-28_13-24-14.826841,"59.23,69.48"
2024-05-28_13-24-14.859586,"95.79,65.81"
2024-05-28_13-24-14.888327,"93.12,76.22"
2024-05-28_13-24-14.921064,"55.34,74.31"
2024-05-28_13-24-14.953802,"59.90,63.56"
2024-05-28_13-24-14.986615,"71.45,67.35"
2024-05-28_13-24-15.019293,"72.44,66.50"
2024-05-28_13-24-15.052093,"54.37,86.50"
2024-05-28_13-24-15.084793,"76.18,62.38"
2024-05-28_13-24-15.117556,"51.14,70.44"
2024-05-28_13-24-15.146348,"84.03,70.47"
2024-05-28_13-24-15.179105,"96.85,71.41"
2024-05-28_13-24-15.211916,"40.48,54.16"
2024-05-28_13-24-15.244617,"58.23,70.60"
2024-05-28_13-24-15.277377,"62.59,65.06"
2024-05-28_13-24-15.310093,"84.47,66.21"
2024-05-28_13-24-15.342767,"57.28,75.76"
2024-05-28_13-24-15.371570,"53.52,74.45"
2024-05-28_13-24-15.404347,"54.20,66.00"
2024-05-28_13-24-15.437112,"61.45,68.02"
2024-05-28_13-24-15.469864,"99.31,74.62"
2024-05-28_13-24-15.502644,"103.44,79.18"
2024-05-28_13-24-15.535344,"44.68,65.16"
2024-05-28_13-24-15.568067,"62.44,68.94"
2024-05-28_13-24-15.596855,"74.54,64.79"
2024-05-28_13-24-15.629599,"65.83,74.81"
2024-05-28_13-24-15.662375,"54.36,69.75"
2024-05-28_13-24-15.695158,"76.35,69.20"
2024-05-28_13-24-15.727942,"49.77,72.19"
2024-05-28_13-24-15.760642,"80.51,66.33"
2024-05-28_13-24-15.793352,"100.99,81.66"
2024-05-28_13-24-15.822119,"61.15,70.68"
2024-05-28_13-24-15.854860,"63.55,65.37"
2024-05-28_13-24-15.887657,"60.42,66.91"
2024-05-28_13-24-15.920467,"82.46,72.78"
2024-05-28_13-24-15.953147,"63.31,68.93"
2024-05-28_13-24-15.985905,"51.80,69.73"
2024-05-28_13-24-16.018600,"78.17,69.76"
2024-05-28_13-24-16.047335,"49.55,75.96"
2024-05-28_13-24-16.080200,"92.35,74.22"
2024-05-28_13-24-16.112911,"92.45,63.62"
2024-05-28_13-24-16.145692,"62.56,54.20"
2024-05-28_13-24-16.178453,"56.18,64.89"
2024-05-28_13-24-16.211192,"59.10,73.12"
2024-05-28_13-24-16.243871,"75.43,68.05"
2024-05-28_13-24-16.272622,"58.88,69.10"
2024-05-28_13-24-16.305420,"59.49,75.12"
2024-05-28_13-24-16.338227,"50.11,67.09"
2024-05-28_13-24-16.371022,"57.08,75.91"
2024-05-28_13-24-16.403698,"91.49,73.21"
2024-05-28_13-24-16.436441,"100.08,65.40"
2024-05-28_13-24-16.469138,"70.96,66.55"
2024-05-28_13-24-16.497875,"58.32,73.98"
2024-05-28_13-24-16.530633,"61.29,64.73"
2024-05-28_13-24-16.563434,"71.83,67.69"
2024-05-28_13-24-16.596190,"60.08,69.44"
2024-05-28_13-24-16.628944,"66.41,77.68"
2024-05-28_13-24-16.661696,"59.85,73.17"
2024-05-28_13-24-16.694416,"78.54,66.17"
2024-05-28_13-24-16.723131,"91.63,72.39"
2024-05-28_13-24-16.755930,"81.96,60.59"
2024-05-28_13-24-16.788762,"51.23,62.22"
2024-05-28_13-24-16.821477,"64.87,68.25"
2024-05-28_13-24-16.854213,"58.33,67.78"
2024-05-28_13-24-16.886987,"67.59,69.22"
2024-05-28_13-24-16.919749,"51.36,67.41"
2024-05-28_13-24-16.948402,"75.51,83.26"
2024-05-28_13-24-16.981190,"59.01,73.75"
2024-05-28_13-24-17.013970,"84.74,66.22"
2024-05-28_13-24-17.046752,"89.56,70.95"
2024-05-28_13-24-17.079465,"93.72,63.03"
2024-05-28_13-24-17.112328,"51.81,63.33"
2024-05-28_13-24-17.145090,"65.42,67.13"
2024-05-28_13-24-17.173695,"80.99,67.87"
2024-05-28_13-24-17.206456,"56.14,67.50"
2024-05-28_13-24-17.239239,"52.22,81.25"
2024-05-28_13-24-17.272008,"52.09,67.07"
2024-05-28_13-24-17.304850,"78.90,70.55"
2024-05-28_13-24-17.337567,"96.43,66.12"
2024-05-28_13-24-17.370304,"94.82,77.12"
2024-05-28_13-24-17.399001,"55.06,58.77"
2024-05-28_13-24-17.431823,"56.57,63.23"
2024-05-28_13-24-17.464827,"68.01,67.27"
2024-05-28_13-24-17.497318,"74.59,66.38"
2024-05-28_13-24-17.530044,"50.65,86.61"
2024-05-28_13-24-17.562799,"79.06,75.11"
2024-05-28_13-24-17.595496,"51.63,72.70"
2024-05-28_13-24-17.628239,"82.01,70.50"
2024-05-28_13-24-17.657084,"97.50,64.81"
2024-05-28_13-24-17.689760,"62.94,62.45"
2024-05-28_13-24-17.722558,"55.40,71.36"
2024-05-28_13-24-17.755357,"60.61,64.76"
2024-05-28_13-24-17.788089,"85.81,65.88"
2024-05-28_13-24-17.820769,"61.06,75.14"
2024-05-28_13-24-17.853492,"70.19,78.70"
2024-05-28_13-24-17.882281,"67.83,70.39"
2024-05-28_13-24-17.915005,"60.89,69.24"
2024-05-28_13-24-17.947786,"96.75,73.22"
2024-05-28_13-24-17.980534,"94.48,71.19"
2024-05-28_13-24-18.013390,"41.05,45.60"
2024-05-28_13-24-18.046099,"56.39,69.09"
2024-05-28_13-24-18.078774,"70.73,64.00"
2024-05-28_13-24-18.107524,"71.34,74.52"
2024-05-28_13-24-18.140263,"52.58,70.06"
2024-05-28_13-24-18.173066,"72.16,74.00"
2024-05-28_13-24-18.205818,"53.18,67.40"
2024-05-28_13-24-18.238587,"76.37,65.35"
2024-05-28_13-24-18.271396,"87.46,73.89"
2024-05-28_13-24-18.304027,"100.54,59.96"
2024-05-28_13-24-18.332810,"58.12,66.04"
2024-05-28_13-24-18.365572,"52.45,67.77"
2024-05-28_13-24-18.398368,"82.25,73.05"
2024-05-28_13-24-18.431141,"61.94,69.21"
2024-05-28_13-24-18.463924,"50.88,69.57"
2024-05-28_13-24-18.496610,"79.92,68.71"
2024-05-28_13-24-18.529326,"47.78,77.70"
2024-05-28_13-24-18.558046,"87.75,73.20"
2024-05-28_13-24-18.590892,"91.74,62.86"
2024-05-28_13-24-18.623674,"77.65,58.77"
2024-05-28_13-24-18.657008,"50.60,64.95"
2024-05-28_13-24-18.689171,"57.07,73.25"
2024-05-28_13-24-18.721882,"74.75,68.80"
2024-05-28_13-24-18.754597,"60.42,68.57"
2024-05-28_13-24-18.783304,"57.90,72.48"
2024-05-28_13-24-18.816107,"74.17,67.88"
2024-05-28_13-24-18.848856,"64.18,78.70"
2024-05-28_13-24-18.881649,"72.47,72.92"
2024-05-28_13-24-18.914391,"90.40,67.85"
2024-05-28_13-24-18.947225,"70.72,53.67"
2024-05-28_13-24-18.979859,"49.56,74.43"
2024-05-28_13-24-19.008604,"56.54,65.38"
2024-05-28_13-24-19.041378,"71.04,68.66"
2024-05-28_13-24-19.074131,"59.39,68.08"
2024-05-28_13-24-19.106908,"54.27,79.52"
2024-05-28_13-24-19.139681,"53.75,71.05"
2024-05-28_13-24-19.172391,"65.89,66.31"
2024-05-28_13-24-19.205106,"84.06,72.72"
2024-05-28_13-24-19.233880,"103.72,66.92"
2024-05-28_13-24-19.266616,"60.92,72.97"
2024-05-28_13-24-19.299440,"49.24,70.78"
2024-05-28_13-24-19.332225,"55.93,65.77"
2024-05-28_13-24-19.364927,"62.59,69.01"
2024-05-28_13-24-19.397677,"53.76,68.03"
2024-05-28_13-24-19.430558,"76.00,77.79"
2024-05-28_13-24-19.459151,"66.35,74.66"
2024-05-28_13-24-19.491884,"72.23,66.50"
2024-05-28_13-24-19.524810,"91.63,72.22"
2024-05-28_13-24-19.557436,"92.36,66.04"
2024-05-28_13-24-19.590213,"62.34,63.09"
2024-05-28_13-24-19.622923,"49.57,69.70"
2024-05-28_13-24-19.655760,"69.93,66.91"
2024-05-28_13-24-19.684417,"53.60,68.81"
2024-05-28_13-24-19.717160,"51.00,77.45"
2024-05-28_13-24-19.749928,"92.37,71.44"
2024-05-28_13-24-19.782663,"65.74,72.47"
2024-05-28_13-24-19.815454,"82.57,65.92"
2024-05-28_13-24-19.848239,"100.21,60.49"
2024-05-28_13-24-19.880914,"70.29,59.61"
2024-05-28_13-24-19.909706,"50.80,65.48"
2024-05-28_13-24-19.942481,"57.11,69.58"
2024-05-28_13-24-19.975273,"74.88,66.03"
2024-05-28_13-24-20.008029,"50.02,77.42"
2024-05-28_13-24-20.040780,"52.31,80.39"
2024-05-28_13-24-20.073506,"71.26,62.94"
2024-05-28_13-24-20.106256,"82.61,71.70"
2024-05-28_13-24-20.134926,"93.19,66.64"
2024-05-28_13-24-20.167730,"87.76,73.22"
2024-05-28_13-24-20.200464,"55.11,59.43"
2024-05-28_13-24-20.233291,"58.99,65.89"
2024-05-28_13-24-20.266009,"59.72,67.63"
2024-05-28_13-24-20.298779,"54.33,76.10"
2024-05-28_13-24-20.331470,"52.11,81.79"
2024-05-28_13-24-20.360213,"75.75,76.70"
2024-05-28_13-24-20.392937,"71.40,69.15"
2024-05-28_13-24-20.425748,"91.21,76.13"
2024-05-28_13-24-20.458512,"100.72,72.86"
2024-05-28_13-24-20.491248,"60.20,45.20"
2024-05-28_13-24-20.524021,"50.43,71.10"
2024-05-28_13-24-20.556754,"61.52,65.31"
2024-05-28_13-24-20.585447,"59.40,70.57"
2024-05-28_13-24-20.618255,"84.02,79.19"
2024-05-28_13-24-20.651020,"62.27,71.22"
2024-05-28_13-24-20.683786,"75.67,72.87"
2024-05-28_13-24-20.716526,"86.94,66.15"
2024-05-28_13-24-20.749322,"91.13,75.95"
2024-05-28_13-24-20.782025,"92.53,58.11"
2024-05-28_13-24-20.814697,"60.41,48.16"
2024-05-28_13-24-20.843505,"45.19,68.78"
2024-05-28_13-24-20.876270,"71.09,76.14"
2024-05-28_13-24-20.909021,"55.80,68.13"
2024-05-28_13-24-20.941793,"50.90,70.44"
2024-05-28_13-24-20.974563,"75.40,75.19"
2024-05-28_13-24-21.007344,"65.62,71.75"
2024-05-28_13-24-21.039976,"86.26,74.11"
2024-05-28_13-24-21.068760,"93.77,62.62"
2024-05-28_13-24-21.101551,"74.79,62.49"
2024-05-28_13-24-21.134288,"49.08,64.59"
2024-05-28_13-24-21.167082,"57.50,74.32"
2024-05-28_13-24-21.199829,"63.79,69.54"
2024-05-28_13-24-21.232611,"55.83,68.71"
2024-05-28_13-24-21.265237,"59.89,75.00"
2024-05-28_13-24-21.294006,"84.90,60.96"
2024-05-28_13-24-21.326810,"67.19,72.17"
2024-05-28_13-24-21.359567,"87.82,73.92"
2024-05-28_13-24-21.392387,"82.53,46.10"
2024-05-28_13-24-21.425243,"57.91,55.36"
2024-05-28_13-24-21.457823,"60.38,73.35"
2024-05-28_13-24-21.490464,"71.05,66.82"
2024-05-28_13-24-21.519324,"57.35,69.29"
2024-05-28_13-24-21.552101,"56.41,69.52"
2024-05-28_13-24-21.584881,"91.85,75.05"
2024-05-28_13-24-21.617633,"70.17,74.23"
2024-05-28_13-24-21.650380,"76.71,63.41"
2024-05-28_13-24-21.683157,"90.12,73.81"
2024-05-28_13-24-21.715918,"59.07,65.18"
2024-05-28_13-24-21.744581,"51.20,61.59"
2024-05-28_13-24-21.777322,"57.18,69.67"
2024-05-28_13-24-21.810108,"63.85,67.09"
2024-05-28_13-24-21.842872,"57.29,69.80"
2024-05-28_13-24-21.875640,"65.39,74.31"
2024-05-28_13-24-21.908385,"57.97,84.29"
2024-05-28_13-24-21.941067,"83.80,72.39"
2024-05-28_13-24-21.969856,"90.75,64.82"
2024-05-28_13-24-22.002664,"62.78,70.69"
2024-05-28_13-24-22.035336,"54.56,62.02"
2024-05-28_13-24-22.068122,"54.14,64.59"
2024-05-28_13-24-22.100864,"54.21,69.42"
2024-05-28_13-24-22.133612,"70.27,67.32"
2024-05-28_13-24-22.166337,"50.86,82.26"
2024-05-28_13-24-22.195069,"73.41,69.02"
2024-05-28_13-24-22.227942,"64.83,68.58"
2024-05-28_13-24-22.260747,"84.25,72.81"
2024-05-28_13-24-22.294468,"105.10,66.26"
2024-05-28_13-24-22.326153,"62.26,39.78"
2024-05-28_13-24-22.359874,"50.90,72.58"
2024-05-28_13-24-22.392033,"56.33,65.26"
2024-05-28_13-24-22.420512,"66.23,69.03"
2024-05-28_13-24-22.453150,"55.06,67.98"
2024-05-28_13-24-22.485937,"78.84,81.46"
2024-05-28_13-24-22.518861,"66.05,75.39"
2024-05-28_13-24-22.551437,"73.61,65.89"
2024-05-28_13-24-22.584244,"94.66,72.31"
2024-05-28_13-24-22.616901,"81.78,63.93"
2024-05-28_13-24-22.645674,"66.72,65.94"
2024-05-28_13-24-22.678417,"53.23,70.29"
2024-05-28_13-24-22.711170,"72.17,66.65"
2024-05-28_13-24-22.743925,"54.24,68.56"
2024-05-28_13-24-22.776694,"50.92,78.29"
2024-05-28_13-24-22.809452,"70.66,70.61"
2024-05-28_13-24-22.842230,"64.62,72.85"
2024-05-28_13-24-22.870931,"85.46,65.70"
2024-05-28_13-24-22.903652,"95.86,77.35"
2024-05-28_13-24-22.936415,"66.10,60.42"
2024-05-28_13-24-22.969204,"49.35,64.54"
2024-05-28_13-24-23.002119,"54.87,69.07"
2024-05-28_13-24-23.034759,"62.57,65.97"
2024-05-28_13-24-23.067465,"49.72,77.78"
2024-05-28_13-24-23.096155,"52.99,78.72"
2024-05-28_13-24-23.128927,"70.01,62.78"
2024-05-28_13-24-23.161677,"84.35,70.78"
2024-05-28_13-24-23.194455,"96.02,65.46"
2024-05-28_13-24-23.227234,"67.47,60.70"
2024-05-28_13-24-23.260000,"68.33,59.66"
2024-05-28_13-24-23.292729,"59.01,65.38"
2024-05-28_13-24-23.325415,"61.69,67.57"
2024-05-28_13-24-23.354236,"54.28,76.01"
2024-05-28_13-24-23.386956,"51.85,71.05"
2024-05-28_13-24-23.419692,"80.11,74.90"
2024-05-28_13-24-23.452601,"73.80,63.94"
2024-05-28_13-24-23.485279,"94.03,75.63"
2024-05-28_13-24-23.518310,"92.27,60.78"
2024-05-28_13-24-23.550677,"60.51,43.38"
2024-05-28_13-24-23.579467,"49.53,71.27"
2024-05-28_13-24-23.612268,"61.83,65.14"
2024-05-28_13-24-23.644999,"65.78,75.06"
2024-05-28_13-24-23.677774,"50.12,71.69"
2024-05-28_13-24-23.710527,"72.29,75.10"
2024-05-28_13-24-23.743251,"52.53,65.17"
2024-05-28_13-24-23.775966,"84.37,67.10"
2024-05-28_13-24-23.804693,"93.20,75.54"
2024-05-28_13-24-23.837477,"80.92,57.27"
2024-05-28_13-24-23.870250,"55.30,47.57"
2024-05-28_13-24-23.903018,"47.93,69.15"
2024-05-28_13-24-23.935829,"68.57,77.61"
2024-05-28_13-24-23.968555,"55.84,68.24"
2024-05-28_13-24-24.001289,"51.37,71.01"
2024-05-28_13-24-24.030029,"81.11,85.90"
2024-05-28_13-24-24.062745,"67.02,76.44"
2024-05-28_13-24-24.095525,"87.48,75.52"
2024-05-28_13-24-24.128387,"88.14,42.44"
2024-05-28_13-24-24.161071,"77.79,37.92"
2024-05-28_13-24-24.193794,"53.34,64.39"
2024-05-28_13-24-24.226504,"56.39,74.27"
2024-05-28_13-24-24.255321,"60.02,69.39"
2024-05-28_13-24-24.288065,"53.63,69.04"
2024-05-28_13-24-24.320777,"61.77,77.63"
2024-05-28_13-24-24.353539,"91.80,60.25"
2024-05-28_13-24-24.386347,"69.82,76.94"
2024-05-28_13-24-24.419067,"87.95,74.69"
2024-05-28_13-24-24.451732,"84.37,46.08"
2024-05-28_13-24-24.480563,"72.73,72.54"
2024-05-28_13-24-24.513337,"58.94,73.24"
2024-05-28_13-24-24.546107,"65.51,67.15"
2024-05-28_13-24-24.578827,"54.72,69.86"
2024-05-28_13-24-24.611605,"57.41,70.19"
2024-05-28_13-24-24.644333,"80.22,86.67"
2024-05-28_13-24-24.677056,"72.14,75.39"
2024-05-28_13-24-24.705790,"81.75,63.01"
2024-05-28_13-24-24.738601,"92.25,58.63"
2024-05-28_13-24-24.771344,"70.25,64.03"
2024-05-28_13-24-24.804141,"56.64,62.14"
2024-05-28_13-24-24.836838,"56.67,69.42"
2024-05-28_13-24-24.869665,"71.66,67.66"
2024-05-28_13-24-24.902326,"55.31,70.24"
2024-05-28_13-24-24.931116,"54.68,77.84"
2024-05-28_13-24-24.963822,"76.61,84.11"
2024-05-28_13-24-24.996617,"78.16,72.98"
2024-05-28_13-24-25.029340,"95.39,65.22"
2024-05-28_13-24-25.062148,"62.19,70.69"
2024-05-28_13-24-25.094880,"54.62,61.61"
2024-05-28_13-24-25.127640,"54.22,64.90"
2024-05-28_13-24-25.156305,"52.81,69.39"
2024-05-28_13-24-25.189126,"62.37,68.04"
2024-05-28_13-24-25.221855,"52.93,71.96"
2024-05-28_13-24-25.254645,"77.29,81.69"
2024-05-28_13-24-25.287374,"63.50,63.04"
2024-05-28_13-24-25.320365,"85.30,72.36"
2024-05-28_13-24-25.352863,"86.38,66.19"
2024-05-28_13-24-25.385535,"61.25,39.59"
2024-05-28_13-24-25.414347,"52.14,72.30"
2024-05-28_13-24-25.447141,"55.60,65.69"
2024-05-28_13-24-25.479913,"63.70,69.11"
2024-05-28_13-24-25.512664,"52.76,68.33"
2024-05-28_13-24-25.545419,"71.19,84.31"
2024-05-28_13-24-25.578198,"70.78,66.04"
2024-05-28_13-24-25.610851,"71.03,68.44"
2024-05-28_13-24-25.639623,"95.02,72.21"
2024-05-28_13-24-25.672430,"81.73,56.90"
2024-05-28_13-24-25.705206,"66.63,50.46"
2024-05-28_13-24-25.737936,"51.52,70.51"
2024-05-28_13-24-25.770704,"73.94,66.16"
2024-05-28_13-24-25.803642,"58.19,68.48"
2024-05-28_13-24-25.836141,"50.83,78.03"
2024-05-28_13-24-25.865009,"78.93,74.34"
2024-05-28_13-24-25.897685,"69.31,65.47"
2024-05-28_13-24-25.930471,"79.98,66.84"
2024-05-28_13-24-25.963402,"101.44,75.08"
2024-05-28_13-24-25.995951,"64.62,74.46"
2024-05-28_13-24-26.028684,"63.89,65.22"
2024-05-28_13-24-26.061392,"56.01,68.86"
2024-05-28_13-24-26.090213,"68.74,65.56"
2024-05-28_13-24-26.122908,"55.52,76.94"
2024-05-28_13-24-26.155681,"52.13,72.78"
2024-05-28_13-24-26.188485,"77.01,83.33"
2024-05-28_13-24-26.221208,"66.07,69.98"
2024-05-28_13-24-26.254030,"90.77,66.30"
2024-05-28_13-24-26.286668,"87.11,74.77"
2024-05-28_13-24-26.315415,"75.94,40.58"
2024-05-28_13-24-26.348200,"51.43,65.46"
2024-05-28_13-24-26.380979,"48.90,67.38"
2024-05-28_13-24-26.413732,"63.07,74.76"
2024-05-28_13-24-26.446570,"52.08,71.25"
2024-05-28_13-24-26.479215,"52.86,70.14"
2024-05-28_13-24-26.511912,"84.92,67.32"
2024-05-28_13-24-26.540811,"82.83,77.48"
2024-05-28_13-24-26.573549,"87.41,74.77"
2024-05-28_13-24-26.606268,"80.00,42.31"
2024-05-28_13-24-26.638981,"77.91,71.94"
2024-05-28_13-24-26.671747,"59.52,64.86"
2024-05-28_13-24-26.704567,"65.25,74.11"
2024-05-28_13-24-26.737205,"57.09,70.42"
2024-05-28_13-24-26.765977,"52.15,70.75"
2024-05-28_13-24-26.798730,"66.87,90.20"
2024-05-28_13-24-26.831475,"77.20,62.15"
2024-05-28_13-24-26.864229,"77.61,75.21"
2024-05-28_13-24-26.897145,"90.98,60.71"
2024-05-28_13-24-26.929816,"74.08,65.29"
2024-05-28_13-24-26.962516,"63.02,56.09"
2024-05-28_13-24-26.991214,"53.95,75.42"
2024-05-28_13-24-27.024030,"74.48,67.04"
2024-05-28_13-24-27.056801,"50.74,69.98"
2024-05-28_13-24-27.089508,"57.31,69.62"
2024-05-28_13-24-27.122270,"90.15,75.09"
2024-05-28_13-24-27.155008,"83.44,76.37"
2024-05-28_13-24-27.187762,"81.27,63.16"
2024-05-28_13-24-27.216476,"90.34,58.43"
2024-05-28_13-24-27.249251,"70.94,63.13"
2024-05-28_13-24-27.281976,"58.24,61.86"
2024-05-28_13-24-27.314744,"53.03,69.09"
2024-05-28_13-24-27.347548,"73.89,66.96"
2024-05-28_13-24-27.380273,"54.43,70.34"
2024-05-28_13-24-27.412984,"53.12,68.96"
2024-05-28_13-24-27.441743,"75.34,79.87"
2024-05-28_13-24-27.474525,"79.07,73.46"
2024-05-28_13-24-27.507303,"89.64,64.62"
2024-05-28_13-24-27.551657,"77.95,33.25"
2024-05-28_13-24-27.572917,"66.48,61.17"
2024-05-28_13-24-27.605575,"49.81,63.70"
2024-05-28_13-24-27.638241,"53.61,68.76"
2024-05-28_13-24-27.667034,"65.22,67.59"
2024-05-28_13-24-27.699857,"51.36,71.34"
2024-05-28_13-24-27.739750,"70.23,85.38"
2024-05-28_13-24-27.772036,"67.13,61.24"
2024-05-28_13-24-27.798173,"84.08,72.33"
2024-05-28_13-24-27.830928,"100.60,64.63"
2024-05-28_13-24-27.863536,"66.31,60.50"
2024-05-28_13-24-27.892241,"56.52,59.09"
2024-05-28_13-24-27.925039,"56.27,64.73"
2024-05-28_13-24-27.957825,"70.29,68.60"
2024-05-28_13-24-27.990636,"61.76,67.89"
2024-05-28_13-24-28.023373,"84.86,89.25"
2024-05-28_13-24-28.056114,"75.77,76.37"
2024-05-28_13-24-28.088862,"70.61,62.17"
2024-05-28_13-24-28.117553,"88.11,70.79"
2024-05-28_13-24-28.150316,"99.13,64.65"
2024-05-28_13-24-28.183100,"61.45,56.60"
2024-05-28_13-24-28.216032,"49.95,73.04"
2024-05-28_13-24-28.248746,"60.86,64.79"
2024-05-28_13-24-28.281409,"68.54,68.08"
2024-05-28_13-24-28.314092,"49.54,77.77"
2024-05-28_13-24-28.342807,"71.08,82.86"
2024-05-28_13-24-28.375560,"73.24,63.75"
2024-05-28_13-24-28.408378,"76.71,66.59"
2024-05-28_13-24-28.441157,"95.21,73.95"
2024-05-28_13-24-28.473856,"94.12,58.55"
2024-05-28_13-24-28.506662,"63.60,45.79"
2024-05-28_13-24-28.539367,"51.96,70.10"
2024-05-28_13-24-28.568080,"59.91,64.49"
2024-05-28_13-24-28.600823,"62.78,76.75"
2024-05-28_13-24-28.633598,"50.35,71.69"
2024-05-28_13-24-28.666430,"83.86,74.74"
2024-05-28_13-24-28.699201,"69.99,65.95"
2024-05-28_13-24-28.731939,"85.59,66.89"
2024-05-28_13-24-28.764673,"93.94,74.25"
2024-05-28_13-24-28.793361,"76.27,40.47"
2024-05-28_13-24-28.826177,"49.45,65.77"
2024-05-28_13-24-28.858890,"49.08,67.83"
2024-05-28_13-24-28.891679,"70.45,74.83"
2024-05-28_13-24-28.924457,"55.41,70.47"
2024-05-28_13-24-28.957199,"52.09,71.00"
2024-05-28_13-24-28.989928,"82.06,82.17"
2024-05-28_13-24-29.022595,"67.67,73.47"
2024-05-28_13-24-29.051453,"81.05,73.53"
2024-05-28_13-24-29.084201,"62.35,66.76"
2024-05-28_13-24-29.116939,"75.78,58.73"
