timestamp,EMG
2024-05-28_13-07-44.204845,"95.51,82.92"
2024-05-28_13-07-44.237635,"99.38,72.79"
2024-05-28_13-07-44.270298,"93.27,54.33"
2024-05-28_13-07-44.299059,"76.78,54.85"
2024-05-28_13-07-44.331845,"59.41,56.49"
2024-05-28_13-07-44.364660,"77.31,83.19"
2024-05-28_13-07-44.397446,"74.77,93.43"
2024-05-28_13-07-44.430181,"85.49,81.78"
2024-05-28_13-07-44.462967,"91.66,87.35"
2024-05-28_13-07-44.495657,"96.31,77.21"
2024-05-28_13-07-44.528395,"104.07,81.45"
2024-05-28_13-07-44.557244,"108.76,73.74"
2024-05-28_13-07-44.589989,"91.74,55.24"
2024-05-28_13-07-44.622730,"74.76,55.35"
2024-05-28_13-07-44.655539,"73.55,59.99"
2024-05-28_13-07-44.688348,"78.81,60.16"
2024-05-28_13-07-44.721028,"73.71,95.20"
2024-05-28_13-07-44.753721,"85.06,80.97"
2024-05-28_13-07-44.782646,"89.97,88.96"
2024-05-28_13-07-44.815379,"88.25,90.92"
2024-05-28_13-07-44.848174,"101.16,56.17"
2024-05-28_13-07-44.880893,"95.39,53.56"
2024-05-28_13-07-44.913675,"92.95,52.43"
2024-05-28_13-07-44.946361,"69.00,53.30"
2024-05-28_13-07-44.975122,"71.24,60.31"
2024-05-28_13-07-45.007864,"74.72,62.62"
2024-05-28_13-07-45.040599,"86.18,84.26"
2024-05-28_13-07-45.074516,"83.45,88.37"
2024-05-28_13-07-45.106203,"80.60,96.36"
2024-05-28_13-07-45.139101,"97.27,58.13"
2024-05-28_13-07-45.171671,"94.14,55.98"
2024-05-28_13-07-45.204411,"97.56,54.43"
2024-05-28_13-07-45.233348,"74.79,57.84"
2024-05-28_13-07-45.266007,"79.54,48.65"
2024-05-28_13-07-45.298731,"69.35,62.02"
2024-05-28_13-07-45.331564,"76.03,81.14"
2024-05-28_13-07-45.364340,"80.83,88.26"
2024-05-28_13-07-45.397070,"88.40,92.74"
2024-05-28_13-07-45.429709,"90.15,84.86"
2024-05-28_13-07-45.458773,"106.20,80.85"
2024-05-28_13-07-45.491338,"89.21,52.33"
2024-05-28_13-07-45.524117,"85.89,54.70"
2024-05-28_13-07-45.556848,"69.65,58.94"
2024-05-28_13-07-45.589655,"74.42,57.62"
2024-05-28_13-07-45.622356,"63.21,94.43"
2024-05-28_13-07-45.655036,"79.54,80.20"
2024-05-28_13-07-45.684020,"88.63,84.28"
2024-05-28_13-07-45.716677,"99.07,97.16"
2024-05-28_13-07-45.749625,"90.00,80.32"
2024-05-28_13-07-45.782271,"109.67,68.73"
2024-05-28_13-07-45.815025,"105.09,57.83"
2024-05-28_13-07-45.847924,"81.42,47.72"
2024-05-28_13-07-45.880381,"69.82,59.95"
2024-05-28_13-07-45.909410,"80.55,58.53"
2024-05-28_13-07-45.942009,"67.47,85.46"
2024-05-28_13-07-45.974772,"84.41,87.86"
2024-05-28_13-07-46.007602,"85.24,83.87"
2024-05-28_13-07-46.040447,"101.84,85.22"
2024-05-28_13-07-46.073202,"93.58,71.84"
2024-05-28_13-07-46.105754,"100.05,69.41"
2024-05-28_13-07-46.134634,"100.75,57.06"
2024-05-28_13-07-46.167364,"70.42,56.14"
2024-05-28_13-07-46.200276,"93.19,55.94"
2024-05-28_13-07-46.232915,"71.08,70.48"
2024-05-28_13-07-46.265732,"84.47,91.67"
2024-05-28_13-07-46.298434,"74.82,93.02"
2024-05-28_13-07-46.331068,"82.82,81.12"
2024-05-28_13-07-46.359962,"86.41,92.70"
2024-05-28_13-07-46.392752,"89.10,59.27"
2024-05-28_13-07-46.425598,"86.74,48.08"
2024-05-28_13-07-46.458311,"81.59,59.68"
2024-05-28_13-07-46.491023,"63.44,57.57"
2024-05-28_13-07-46.523710,"76.78,71.43"
2024-05-28_13-07-46.556543,"72.02,83.06"
2024-05-28_13-07-46.585326,"66.49,94.10"
2024-05-28_13-07-46.618060,"77.18,98.80"
2024-05-28_13-07-46.651495,"86.10,82.80"
2024-05-28_13-07-46.683599,"75.86,60.16"
2024-05-28_13-07-46.716567,"86.97,60.22"
2024-05-28_13-07-46.749243,"77.20,56.20"
2024-05-28_13-07-46.788923,"84.19,56.45"
2024-05-28_13-07-46.810645,"84.59,56.37"
2024-05-28_13-07-46.843332,"72.52,75.56"
2024-05-28_13-07-46.876090,"72.56,86.84"
2024-05-28_13-07-46.908856,"89.03,82.06"
2024-05-28_13-07-46.941647,"91.40,87.12"
2024-05-28_13-07-46.974471,"95.08,80.81"
2024-05-28_13-07-47.007242,"100.43,66.48"
2024-05-28_13-07-47.035987,"85.21,58.86"
2024-05-28_13-07-47.068730,"68.30,56.80"
2024-05-28_13-07-47.101392,"79.34,55.89"
2024-05-28_13-07-47.134277,"74.94,56.38"
2024-05-28_13-07-47.167085,"75.50,78.27"
2024-05-28_13-07-47.199798,"75.80,96.78"
2024-05-28_13-07-47.232520,"80.13,84.07"
2024-05-28_13-07-47.261260,"88.68,84.30"
2024-05-28_13-07-47.293972,"98.94,84.32"
2024-05-28_13-07-47.326800,"100.39,71.46"
2024-05-28_13-07-47.359630,"107.28,54.37"
2024-05-28_13-07-47.392513,"73.60,54.27"
2024-05-28_13-07-47.425100,"72.87,85.78"
2024-05-28_13-07-47.457763,"77.36,97.77"
2024-05-28_13-07-47.486531,"78.62,81.83"
2024-05-28_13-07-47.519307,"88.19,89.25"
2024-05-28_13-07-47.552113,"77.48,88.04"
2024-05-28_13-07-47.584911,"98.04,87.31"
2024-05-28_13-07-47.617680,"88.72,69.38"
2024-05-28_13-07-47.650697,"82.48,55.71"
2024-05-28_13-07-47.683300,"72.13,56.58"
2024-05-28_13-07-47.714262,"74.28,59.58"
2024-05-28_13-07-47.744812,"88.49,57.71"
2024-05-28_13-07-47.777553,"63.90,81.14"
2024-05-28_13-07-47.810288,"85.77,86.56"
2024-05-28_13-07-47.843098,"64.44,98.33"
2024-05-28_13-07-47.875845,"75.53,85.16"
2024-05-28_13-07-47.908661,"86.33,83.71"
2024-05-28_13-07-47.937517,"70.82,57.16"
2024-05-28_13-07-47.970054,"95.63,53.16"
2024-05-28_13-07-48.002772,"72.93,56.15"
2024-05-28_13-07-48.035553,"74.27,57.82"
2024-05-28_13-07-48.068330,"72.85,79.82"
2024-05-28_13-07-48.101233,"63.62,97.37"
2024-05-28_13-07-48.133871,"72.67,90.80"
2024-05-28_13-07-48.166550,"75.84,91.92"
2024-05-28_13-07-48.195318,"100.01,88.40"
2024-05-28_13-07-48.228102,"94.50,53.22"
2024-05-28_13-07-48.260906,"81.87,54.64"
2024-05-28_13-07-48.293692,"89.14,58.79"
2024-05-28_13-07-48.326441,"70.78,47.24"
2024-05-28_13-07-48.361428,"74.23,86.26"
2024-05-28_13-07-48.391882,"67.19,83.22"
2024-05-28_13-07-48.420731,"82.48,86.86"
2024-05-28_13-07-48.459211,"80.84,91.72"
2024-05-28_13-07-48.490254,"80.22,92.18"
2024-05-28_13-07-48.526691,"97.17,58.56"
2024-05-28_13-07-48.552316,"72.21,54.17"
2024-05-28_13-07-48.584769,"80.29,56.73"
2024-05-28_13-07-48.617339,"78.88,60.34"
2024-05-28_13-07-48.646202,"78.66,84.65"
2024-05-28_13-07-48.678936,"67.37,75.98"
2024-05-28_13-07-48.712775,"70.16,73.80"
2024-05-28_13-07-48.744420,"79.13,105.70"
2024-05-28_13-07-48.777276,"83.23,97.97"
2024-05-28_13-07-48.809886,"72.07,66.09"
2024-05-28_13-07-48.842525,"110.74,57.37"
2024-05-28_13-07-48.871409,"106.50,57.94"
2024-05-28_13-07-48.904061,"89.02,47.75"
2024-05-28_13-07-48.936869,"85.84,60.11"
2024-05-28_13-07-48.969680,"81.63,58.26"
2024-05-28_13-07-49.002544,"69.42,78.10"
2024-05-28_13-07-49.035370,"85.10,92.67"
2024-05-28_13-07-49.067910,"69.88,92.39"
2024-05-28_13-07-49.096621,"92.01,88.89"
2024-05-28_13-07-49.130219,"90.38,71.10"
2024-05-28_13-07-49.162252,"75.38,55.41"
2024-05-28_13-07-49.195025,"80.16,59.29"
2024-05-28_13-07-49.227729,"72.01,56.84"
2024-05-28_13-07-49.260459,"80.97,54.98"
2024-05-28_13-07-49.293195,"76.71,80.68"
2024-05-28_13-07-49.321956,"82.24,91.78"
2024-05-28_13-07-49.354769,"72.43,95.12"
2024-05-28_13-07-49.388336,"76.45,86.39"
2024-05-28_13-07-49.420276,"84.06,90.97"
2024-05-28_13-07-49.452977,"98.63,82.60"
2024-05-28_13-07-49.486154,"108.13,47.58"
2024-05-28_13-07-49.518636,"96.91,58.05"
2024-05-28_13-07-49.547297,"60.69,56.89"
2024-05-28_13-07-49.579991,"81.55,53.15"
2024-05-28_13-07-49.612761,"75.27,71.73"
2024-05-28_13-07-49.646920,"86.24,80.62"
2024-05-28_13-07-49.678363,"82.44,91.50"
2024-05-28_13-07-49.711162,"90.79,82.53"
2024-05-28_13-07-49.743879,"93.08,82.53"
2024-05-28_13-07-49.772686,"104.12,71.90"
2024-05-28_13-07-49.805470,"89.89,55.17"
2024-05-28_13-07-49.838159,"75.27,56.05"
2024-05-28_13-07-49.870968,"82.20,56.18"
2024-05-28_13-07-49.903959,"75.42,54.67"
2024-05-28_13-07-49.936496,"73.05,94.49"
2024-05-28_13-07-49.969189,"77.98,84.08"
2024-05-28_13-07-49.997987,"84.06,86.81"
2024-05-28_13-07-50.030728,"89.15,77.61"
2024-05-28_13-07-50.063465,"107.83,86.60"
2024-05-28_13-07-50.096192,"108.53,58.18"
2024-05-28_13-07-50.128995,"78.44,55.72"
2024-05-28_13-07-50.161801,"73.24,55.51"
2024-05-28_13-07-50.194519,"71.18,65.57"
2024-05-28_13-07-50.227218,"73.39,91.98"
2024-05-28_13-07-50.256142,"80.58,93.89"
2024-05-28_13-07-50.288788,"83.25,88.22"
2024-05-28_13-07-50.321560,"85.19,87.02"
2024-05-28_13-07-50.354517,"104.10,80.16"
2024-05-28_13-07-50.387062,"98.73,71.84"
2024-05-28_13-07-50.419862,"92.44,55.49"
2024-05-28_13-07-50.448511,"84.54,54.31"
2024-05-28_13-07-50.481306,"69.25,57.09"
2024-05-28_13-07-50.514141,"84.81,59.62"
2024-05-28_13-07-50.547040,"74.19,85.97"
2024-05-28_13-07-50.579726,"80.40,91.52"
2024-05-28_13-07-50.612415,"82.01,84.96"
2024-05-28_13-07-50.645171,"93.10,88.70"
2024-05-28_13-07-50.677921,"103.92,67.35"
2024-05-28_13-07-50.706665,"85.39,57.09"
2024-05-28_13-07-50.739511,"103.07,54.79"
2024-05-28_13-07-50.772275,"75.59,59.98"
2024-05-28_13-07-50.805033,"82.41,48.88"
2024-05-28_13-07-50.837728,"60.63,86.14"
2024-05-28_13-07-50.870489,"77.09,83.72"
2024-05-28_13-07-50.903195,"78.46,90.63"
2024-05-28_13-07-50.932124,"88.31,91.35"
2024-05-28_13-07-50.964906,"82.19,93.68"
2024-05-28_13-07-50.997553,"110.21,58.13"
2024-05-28_13-07-51.030350,"96.80,53.40"
2024-05-28_13-07-51.063141,"87.21,55.16"
2024-05-28_13-07-51.095837,"71.79,61.27"
2024-05-28_13-07-51.128523,"85.92,59.02"
2024-05-28_13-07-51.157275,"69.49,84.01"
2024-05-28_13-07-51.190112,"77.07,85.74"
2024-05-28_13-07-51.223004,"79.14,87.97"
2024-05-28_13-07-51.260747,"90.60,96.04"
2024-05-28_13-07-51.288775,"86.98,73.56"
2024-05-28_13-07-51.321251,"74.45,57.83"
2024-05-28_13-07-51.353882,"86.15,60.14"
2024-05-28_13-07-51.383431,"80.10,49.75"
2024-05-28_13-07-51.415532,"76.12,64.26"
2024-05-28_13-07-51.448166,"69.38,72.70"
2024-05-28_13-07-51.480995,"70.54,85.97"
2024-05-28_13-07-51.513851,"83.80,89.22"
2024-05-28_13-07-51.546622,"69.41,91.86"
2024-05-28_13-07-51.579264,"82.06,88.77"
2024-05-28_13-07-51.608257,"78.75,56.13"
2024-05-28_13-07-51.640917,"83.37,55.61"
2024-05-28_13-07-51.680087,"88.77,60.07"
2024-05-28_13-07-51.719416,"72.74,58.67"
2024-05-28_13-07-51.741168,"79.26,93.46"
2024-05-28_13-07-51.795586,"72.42,70.92"
2024-05-28_13-07-51.817564,"78.90,87.41"
2024-05-28_13-07-51.833517,"76.89,102.25"
2024-05-28_13-07-51.869724,"69.31,82.14"
2024-05-28_13-07-51.915618,"86.37,75.57"
2024-05-28_13-07-51.934248,"78.91,61.91"
2024-05-28_13-07-51.964609,"86.32,51.29"
2024-05-28_13-07-51.997347,"81.35,60.22"
2024-05-28_13-07-52.029971,"78.17,59.50"
2024-05-28_13-07-52.058730,"76.77,70.82"
2024-05-28_13-07-52.091519,"72.11,83.68"
2024-05-28_13-07-52.124293,"82.20,91.17"
2024-05-28_13-07-52.157075,"78.71,97.25"
2024-05-28_13-07-52.189724,"82.97,62.58"
2024-05-28_13-07-52.222452,"100.44,59.19"
2024-05-28_13-07-52.255219,"111.57,57.99"
2024-05-28_13-07-52.284103,"81.00,56.21"
2024-05-28_13-07-52.316780,"76.51,55.60"
2024-05-28_13-07-52.349624,"87.78,58.24"
2024-05-28_13-07-52.382296,"74.07,78.64"
2024-05-28_13-07-52.415086,"77.19,96.20"
2024-05-28_13-07-52.447824,"81.94,94.56"
2024-05-28_13-07-52.480623,"95.96,81.81"
2024-05-28_13-07-52.509361,"91.91,72.41"
2024-05-28_13-07-52.542178,"83.13,47.65"
2024-05-28_13-07-52.574854,"107.21,58.03"
2024-05-28_13-07-52.608177,"61.28,57.20"
2024-05-28_13-07-52.640630,"71.90,53.28"
2024-05-28_13-07-52.673344,"78.20,70.89"
2024-05-28_13-07-52.705990,"74.34,87.00"
2024-05-28_13-07-52.735298,"81.19,105.35"
2024-05-28_13-07-52.767595,"78.86,87.48"
2024-05-28_13-07-52.800195,"68.67,78.99"
2024-05-28_13-07-52.832966,"106.98,70.50"
2024-05-28_13-07-52.865719,"99.64,54.91"
2024-05-28_13-07-52.898508,"94.97,53.70"
2024-05-28_13-07-52.931226,"63.21,55.11"
2024-05-28_13-07-52.959992,"66.98,53.88"
2024-05-28_13-07-52.992970,"71.31,95.74"
2024-05-28_13-07-53.025599,"80.97,81.33"
2024-05-28_13-07-53.058277,"88.87,82.86"
2024-05-28_13-07-53.091095,"88.47,84.71"
2024-05-28_13-07-53.123837,"93.79,89.81"
2024-05-28_13-07-53.156539,"100.44,69.19"
2024-05-28_13-07-53.185254,"96.55,54.56"
2024-05-28_13-07-53.218040,"89.19,53.58"
2024-05-28_13-07-53.250892,"60.22,58.90"
2024-05-28_13-07-53.283722,"87.25,47.34"
2024-05-28_13-07-53.316376,"64.61,84.80"
2024-05-28_13-07-53.349223,"81.73,81.36"
2024-05-28_13-07-53.381850,"89.10,81.47"
2024-05-28_13-07-53.414683,"98.92,85.85"
2024-05-28_13-07-53.443404,"98.10,88.23"
2024-05-28_13-07-53.476299,"111.80,69.20"
2024-05-28_13-07-53.509014,"98.01,52.09"
2024-05-28_13-07-53.541755,"73.87,53.61"
2024-05-28_13-07-53.574463,"61.69,59.92"
2024-05-28_13-07-53.607224,"80.23,88.85"
2024-05-28_13-07-53.639887,"71.17,90.09"
2024-05-28_13-07-53.668724,"85.05,80.80"
2024-05-28_13-07-53.708453,"89.65,80.68"
2024-05-28_13-07-53.734477,"99.04,91.74"
2024-05-28_13-07-53.767080,"95.21,58.88"
2024-05-28_13-07-53.799842,"109.89,54.11"
2024-05-28_13-07-53.832758,"97.72,56.66"
2024-05-28_13-07-53.865249,"72.30,47.96"
2024-05-28_13-07-53.894142,"81.50,58.88"
2024-05-28_13-07-53.926839,"69.90,62.77"
2024-05-28_13-07-53.959666,"76.46,88.27"
2024-05-28_13-07-53.992450,"91.65,83.71"
2024-05-28_13-07-54.025241,"86.51,88.42"
2024-05-28_13-07-54.057830,"104.56,83.28"
2024-05-28_13-07-54.090582,"87.77,76.57"
2024-05-28_13-07-54.119408,"99.22,69.23"
2024-05-28_13-07-54.152235,"100.42,58.03"
2024-05-28_13-07-54.184898,"62.34,56.89"
2024-05-28_13-07-54.217674,"78.30,54.59"
2024-05-28_13-07-54.250449,"70.94,62.05"
2024-05-28_13-07-54.283181,"89.17,86.88"
2024-05-28_13-07-54.315923,"90.20,88.08"
2024-05-28_13-07-54.345755,"86.74,84.46"
2024-05-28_13-07-54.377490,"97.31,79.52"
2024-05-28_13-07-54.410223,"105.33,71.36"
2024-05-28_13-07-54.443028,"100.43,46.88"
2024-05-28_13-07-54.475766,"80.43,58.96"
2024-05-28_13-07-54.508558,"72.32,57.70"
2024-05-28_13-07-54.541190,"73.06,57.38"
2024-05-28_13-07-54.569966,"75.38,87.83"
2024-05-28_13-07-54.602763,"80.72,77.07"
2024-05-28_13-07-54.635592,"100.51,93.50"
2024-05-28_13-07-54.668421,"88.39,76.08"
2024-05-28_13-07-54.701078,"99.34,86.18"
2024-05-28_13-07-54.733851,"111.01,57.67"
2024-05-28_13-07-54.767530,"89.16,54.36"
2024-05-28_13-07-54.795310,"70.22,54.87"
2024-05-28_13-07-54.828126,"71.16,57.04"
2024-05-28_13-07-54.860884,"72.36,99.65"
2024-05-28_13-07-54.893766,"84.50,90.34"
2024-05-28_13-07-54.926569,"85.60,89.26"
2024-05-28_13-07-54.959147,"91.14,81.74"
2024-05-28_13-07-54.991884,"87.13,79.81"
2024-05-28_13-07-55.020772,"91.48,78.28"
2024-05-28_13-07-55.053414,"108.89,57.36"
2024-05-28_13-07-55.086216,"64.93,56.66"
2024-05-28_13-07-55.118963,"68.13,54.82"
2024-05-28_13-07-55.151877,"80.13,57.36"
2024-05-28_13-07-55.184504,"79.22,73.06"
2024-05-28_13-07-55.217202,"87.17,91.50"
2024-05-28_13-07-55.246021,"88.89,86.62"
2024-05-28_13-07-55.278782,"96.28,79.49"
2024-05-28_13-07-55.311555,"101.96,71.53"
2024-05-28_13-07-55.344284,"101.38,70.01"
2024-05-28_13-07-55.377085,"97.80,53.57"
2024-05-28_13-07-55.409811,"66.44,54.87"
2024-05-28_13-07-55.442539,"66.86,53.45"
2024-05-28_13-07-55.471283,"71.84,99.95"
2024-05-28_13-07-55.504127,"79.79,81.40"
2024-05-28_13-07-55.536850,"84.71,83.54"
2024-05-28_13-07-55.569588,"88.20,88.19"
2024-05-28_13-07-55.602697,"102.85,86.70"
2024-05-28_13-07-55.635218,"81.90,55.02"
2024-05-28_13-07-55.667848,"74.99,56.02"
2024-05-28_13-07-55.696595,"84.82,55.53"
2024-05-28_13-07-55.729536,"59.05,59.77"
2024-05-28_13-07-55.762149,"84.32,49.69"
2024-05-28_13-07-55.794945,"71.87,80.97"
2024-05-28_13-07-55.827743,"71.75,80.88"
2024-05-28_13-07-55.860465,"91.51,80.50"
2024-05-28_13-07-55.893205,"101.74,80.92"
2024-05-28_13-07-55.922020,"78.03,79.48"
2024-05-28_13-07-55.954738,"105.53,68.79"
2024-05-28_13-07-55.987477,"97.96,52.41"
2024-05-28_13-07-56.020290,"68.17,54.18"
2024-05-28_13-07-56.053009,"72.52,60.35"
2024-05-28_13-07-56.085861,"74.44,62.93"
2024-05-28_13-07-56.118505,"82.33,84.71"
2024-05-28_13-07-56.147298,"73.56,79.52"
2024-05-28_13-07-56.180070,"93.21,87.85"
2024-05-28_13-07-56.213002,"104.25,84.97"
2024-05-28_13-07-56.245595,"91.97,56.50"
2024-05-28_13-07-56.278354,"111.87,53.57"
2024-05-28_13-07-56.311219,"77.43,56.88"
2024-05-28_13-07-56.344325,"80.72,49.26"
2024-05-28_13-07-56.372631,"72.88,70.91"
2024-05-28_13-07-56.405605,"72.49,83.08"
2024-05-28_13-07-56.438158,"86.94,85.64"
2024-05-28_13-07-56.471028,"94.87,86.93"
2024-05-28_13-07-56.503705,"83.19,88.17"
2024-05-28_13-07-56.536532,"102.90,91.94"
2024-05-28_13-07-56.569173,"95.08,52.55"
2024-05-28_13-07-56.601873,"92.29,52.38"
2024-05-28_13-07-56.630708,"64.77,60.20"
2024-05-28_13-07-56.663488,"74.00,57.55"
2024-05-28_13-07-56.696225,"63.09,92.43"
2024-05-28_13-07-56.729052,"79.35,80.64"
2024-05-28_13-07-56.761777,"84.08,84.07"
2024-05-28_13-07-56.797239,"103.51,94.67"
2024-05-28_13-07-56.827283,"79.54,71.17"
2024-05-28_13-07-56.856057,"83.53,55.29"
2024-05-28_13-07-56.888819,"106.22,57.28"
2024-05-28_13-07-56.921638,"75.98,47.62"
2024-05-28_13-07-56.954361,"74.28,59.19"
2024-05-28_13-07-56.987159,"74.57,81.34"
2024-05-28_13-07-57.019808,"73.37,90.15"
2024-05-28_13-07-57.052521,"95.64,83.50"
2024-05-28_13-07-57.096213,"86.41,80.19"
2024-05-28_13-07-57.114564,"80.62,85.84"
2024-05-28_13-07-57.146988,"95.15,55.43"
2024-05-28_13-07-57.179703,"99.73,53.80"
2024-05-28_13-07-57.212574,"93.76,57.32"
2024-05-28_13-07-57.245221,"63.03,56.63"
2024-05-28_13-07-57.277868,"78.02,52.68"
2024-05-28_13-07-57.306716,"69.03,67.91"
2024-05-28_13-07-57.339448,"84.69,85.07"
2024-05-28_13-07-57.373709,"88.45,88.45"
2024-05-28_13-07-57.405106,"88.14,81.67"
2024-05-28_13-07-57.437862,"87.59,72.18"
2024-05-28_13-07-57.470485,"105.70,57.90"
2024-05-28_13-07-57.503408,"110.17,46.43"
2024-05-28_13-07-57.533296,"85.41,58.00"
2024-05-28_13-07-57.564827,"59.28,57.13"
2024-05-28_13-07-57.597545,"77.76,76.79"
2024-05-28_13-07-57.630334,"77.45,86.97"
2024-05-28_13-07-57.663103,"80.17,77.06"
2024-05-28_13-07-57.695811,"90.14,102.24"
2024-05-28_13-07-57.728555,"86.19,75.13"
2024-05-28_13-07-57.757388,"82.89,84.11"
2024-05-28_13-07-57.790154,"111.49,70.24"
2024-05-28_13-07-57.822878,"79.30,55.60"
2024-05-28_13-07-57.855630,"75.75,55.45"
2024-05-28_13-07-57.888669,"73.89,57.21"
2024-05-28_13-07-57.921096,"75.08,67.34"
2024-05-28_13-07-57.953867,"74.35,95.67"
2024-05-28_13-07-57.982617,"88.60,81.30"
2024-05-28_13-07-58.015521,"93.56,86.50"
2024-05-28_13-07-58.048268,"89.01,80.27"
2024-05-28_13-07-58.080985,"107.41,52.16"
2024-05-28_13-07-58.113754,"116.80,57.48"
2024-05-28_13-07-58.146392,"73.37,55.20"
2024-05-28_13-07-58.179113,"70.55,54.75"
2024-05-28_13-07-58.207849,"83.05,56.41"
2024-05-28_13-07-58.240609,"74.75,75.43"
2024-05-28_13-07-58.273428,"80.86,93.56"
2024-05-28_13-07-58.306221,"88.07,89.92"
2024-05-28_13-07-58.338991,"96.64,81.74"
2024-05-28_13-07-58.371748,"95.61,76.41"
2024-05-28_13-07-58.404470,"95.54,82.50"
2024-05-28_13-07-58.433214,"101.98,53.04"
2024-05-28_13-07-58.465969,"69.68,54.78"
2024-05-28_13-07-58.498949,"69.58,52.79"
2024-05-28_13-07-58.531663,"72.30,86.79"
2024-05-28_13-07-58.564415,"80.85,81.42"
2024-05-28_13-07-58.597165,"78.03,86.66"
2024-05-28_13-07-58.629873,"82.53,85.68"
2024-05-28_13-07-58.658559,"88.74,83.85"
2024-05-28_13-07-58.691478,"93.74,88.07"
2024-05-28_13-07-58.724172,"77.16,55.80"
2024-05-28_13-07-58.756893,"82.51,54.21"
2024-05-28_13-07-58.789753,"59.45,59.52"
2024-05-28_13-07-58.822447,"82.16,69.30"
2024-05-28_13-07-58.855138,"72.69,82.52"
2024-05-28_13-07-58.883887,"87.78,80.23"
2024-05-28_13-07-58.916737,"92.75,80.14"
2024-05-28_13-07-58.949716,"102.37,82.76"
2024-05-28_13-07-58.982276,"90.32,81.08"
2024-05-28_13-07-59.015158,"112.53,69.08"
2024-05-28_13-07-59.047755,"99.73,52.39"
2024-05-28_13-07-59.080483,"67.61,54.25"
2024-05-28_13-07-59.109272,"74.06,60.38"
2024-05-28_13-07-59.142029,"74.89,62.33"
2024-05-28_13-07-59.174793,"76.71,86.30"
2024-05-28_13-07-59.207579,"87.41,79.81"
2024-05-28_13-07-59.240332,"90.68,88.49"
2024-05-28_13-07-59.273097,"104.05,85.19"
2024-05-28_13-07-59.305798,"93.44,79.77"
2024-05-28_13-07-59.334596,"113.03,52.56"
2024-05-28_13-07-59.367342,"76.80,57.36"
2024-05-28_13-07-59.400121,"78.55,50.20"
2024-05-28_13-07-59.433095,"67.81,62.91"
2024-05-28_13-07-59.465660,"77.14,80.87"
2024-05-28_13-07-59.498517,"75.79,84.80"
2024-05-28_13-07-59.531119,"86.78,89.10"
2024-05-28_13-07-59.559852,"97.65,81.03"
2024-05-28_13-07-59.592671,"91.56,86.62"
2024-05-28_13-07-59.625486,"101.02,53.40"
2024-05-28_13-07-59.658523,"87.60,53.99"
2024-05-28_13-07-59.691073,"76.12,59.18"
2024-05-28_13-07-59.723833,"87.49,57.68"
2024-05-28_13-07-59.756454,"62.79,93.16"
2024-05-28_13-07-59.785180,"81.25,79.71"
2024-05-28_13-07-59.818036,"92.09,81.86"
2024-05-28_13-07-59.850737,"101.00,97.85"
2024-05-28_13-07-59.883553,"89.38,77.18"
2024-05-28_13-07-59.916353,"100.61,81.35"
2024-05-28_13-07-59.949121,"98.33,57.50"
2024-05-28_13-07-59.981793,"75.25,48.10"
2024-05-28_13-08-00.010545,"67.96,60.00"
2024-05-28_13-08-00.043356,"72.84,82.14"
2024-05-28_13-08-00.076092,"73.99,89.86"
2024-05-28_13-08-00.108828,"89.59,84.16"
2024-05-28_13-08-00.141637,"85.26,90.06"
2024-05-28_13-08-00.174405,"102.45,84.19"
2024-05-28_13-08-00.207099,"94.86,70.38"
2024-05-28_13-08-00.239806,"97.68,68.41"
2024-05-28_13-08-00.268633,"97.79,57.51"
2024-05-28_13-08-00.301580,"62.71,57.40"
2024-05-28_13-08-00.334202,"76.53,73.00"
2024-05-28_13-08-00.367120,"69.36,63.61"
2024-05-28_13-08-00.399824,"82.83,86.11"
2024-05-28_13-08-00.432429,"85.61,89.43"
2024-05-28_13-08-00.465145,"89.38,83.86"
2024-05-28_13-08-00.493925,"87.79,78.45"
2024-05-28_13-08-00.526704,"85.27,83.14"
2024-05-28_13-08-00.559580,"101.10,46.65"
2024-05-28_13-08-00.592334,"76.28,58.91"
2024-05-28_13-08-00.625092,"70.84,57.47"
2024-05-28_13-08-00.657731,"69.23,55.28"
2024-05-28_13-08-00.690450,"82.92,85.61"
2024-05-28_13-08-00.719282,"69.23,77.36"
2024-05-28_13-08-00.752106,"101.54,96.39"
2024-05-28_13-08-00.784812,"99.27,75.36"
2024-05-28_13-08-00.817604,"99.43,85.24"
2024-05-28_13-08-00.850412,"114.48,57.48"
2024-05-28_13-08-00.883129,"75.04,55.87"
2024-05-28_13-08-00.915793,"67.73,55.30"
2024-05-28_13-08-00.944586,"81.24,57.76"
2024-05-28_13-08-00.977356,"75.86,89.87"
2024-05-28_13-08-01.010230,"89.65,89.36"
2024-05-28_13-08-01.042926,"87.90,80.21"
2024-05-28_13-08-01.075706,"97.29,81.96"
2024-05-28_13-08-01.108441,"92.62,76.96"
2024-05-28_13-08-01.141135,"88.88,73.75"
2024-05-28_13-08-01.169948,"105.36,56.87"
2024-05-28_13-08-01.202660,"58.88,57.19"
2024-05-28_13-08-01.235431,"67.20,54.59"
2024-05-28_13-08-01.268271,"76.32,91.91"
2024-05-28_13-08-01.301022,"83.30,79.57"
2024-05-28_13-08-01.333741,"91.01,90.72"
2024-05-28_13-08-01.366459,"89.50,84.72"
2024-05-28_13-08-01.395302,"87.08,79.27"
2024-05-28_13-08-01.428019,"109.69,80.24"
2024-05-28_13-08-01.460779,"104.51,70.36"
2024-05-28_13-08-01.493550,"90.29,53.49"
2024-05-28_13-08-01.526326,"59.21,56.75"
2024-05-28_13-08-01.559074,"79.36,53.78"
2024-05-28_13-08-01.591784,"73.76,78.33"
2024-05-28_13-08-01.620593,"73.34,80.68"
2024-05-28_13-08-01.653289,"93.25,81.38"
2024-05-28_13-08-01.686157,"91.21,90.15"
2024-05-28_13-08-01.718948,"95.48,87.01"
2024-05-28_13-08-01.751706,"108.41,68.03"
2024-05-28_13-08-01.784405,"95.02,55.38"
2024-05-28_13-08-01.817098,"77.49,53.80"
2024-05-28_13-08-01.845845,"74.08,59.48"
2024-05-28_13-08-01.878703,"79.30,72.24"
2024-05-28_13-08-01.911432,"73.12,93.44"
2024-05-28_13-08-01.944236,"87.71,81.13"
2024-05-28_13-08-01.977027,"90.44,80.49"
2024-05-28_13-08-02.009818,"101.17,82.63"
2024-05-28_13-08-02.042648,"90.45,88.70"
2024-05-28_13-08-02.071279,"114.30,54.05"
2024-05-28_13-08-02.104036,"90.70,52.68"
2024-05-28_13-08-02.136825,"68.85,53.64"
2024-05-28_13-08-02.169529,"74.94,74.68"
2024-05-28_13-08-02.202314,"71.80,78.71"
2024-05-28_13-08-02.235171,"82.71,83.57"
2024-05-28_13-08-02.267734,"85.46,82.08"
2024-05-28_13-08-02.296502,"91.78,88.79"
2024-05-28_13-08-02.329385,"109.02,88.21"
2024-05-28_13-08-02.362154,"89.00,75.72"
2024-05-28_13-08-02.394907,"111.47,52.68"
2024-05-28_13-08-02.427585,"74.69,57.40"
2024-05-28_13-08-02.460342,"78.93,50.64"
2024-05-28_13-08-02.493096,"70.30,81.21"
2024-05-28_13-08-02.521866,"69.54,81.12"
2024-05-28_13-08-02.554661,"91.06,82.73"
2024-05-28_13-08-02.587369,"90.45,92.90"
2024-05-28_13-08-02.620143,"90.93,86.34"
2024-05-28_13-08-02.652918,"88.12,82.38"
2024-05-28_13-08-02.685696,"88.63,77.18"
2024-05-28_13-08-02.718377,"97.81,52.19"
2024-05-28_13-08-02.751074,"69.98,60.44"
2024-05-28_13-08-02.779926,"73.75,58.81"
2024-05-28_13-08-02.812725,"65.85,74.38"
2024-05-28_13-08-02.845453,"79.69,79.37"
2024-05-28_13-08-02.878232,"89.34,82.83"
2024-05-28_13-08-02.911095,"102.30,93.86"
2024-05-28_13-08-02.943715,"94.33,76.92"
2024-05-28_13-08-02.976392,"94.40,85.77"
2024-05-28_13-08-03.005241,"105.01,57.62"
2024-05-28_13-08-03.038053,"80.65,47.33"
2024-05-28_13-08-03.070825,"67.91,59.92"
2024-05-28_13-08-03.103676,"78.99,58.55"
2024-05-28_13-08-03.136333,"68.34,75.23"
2024-05-28_13-08-03.169049,"92.75,83.61"
2024-05-28_13-08-03.201751,"86.52,76.36"
2024-05-28_13-08-03.230595,"103.04,90.67"
2024-05-28_13-08-03.263314,"94.02,75.61"
2024-05-28_13-08-03.296132,"101.72,78.17"
2024-05-28_13-08-03.328966,"107.50,57.24"
2024-05-28_13-08-03.361726,"67.03,56.74"
2024-05-28_13-08-03.394415,"67.33,53.39"
2024-05-28_13-08-03.427088,"75.65,84.87"
2024-05-28_13-08-03.455897,"84.31,83.34"
2024-05-28_13-08-03.488684,"89.62,89.36"
2024-05-28_13-08-03.521554,"88.36,87.62"
2024-05-28_13-08-03.554284,"99.60,78.24"
2024-05-28_13-08-03.587111,"103.35,84.50"
2024-05-28_13-08-03.619832,"100.26,66.00"
2024-05-28_13-08-03.652430,"96.02,58.14"
2024-05-28_13-08-03.681201,"54.87,58.58"
2024-05-28_13-08-03.713951,"79.34,54.62"
2024-05-28_13-08-03.746785,"75.83,70.44"
2024-05-28_13-08-03.779499,"84.81,79.11"
2024-05-28_13-08-03.812370,"92.49,90.27"
2024-05-28_13-08-03.845011,"89.85,82.21"
2024-05-28_13-08-03.877718,"98.28,79.22"
2024-05-28_13-08-03.906523,"93.54,84.69"
2024-05-28_13-08-03.939342,"102.19,70.22"
2024-05-28_13-08-03.972116,"81.13,53.77"
2024-05-28_13-08-04.004845,"60.14,56.10"
2024-05-28_13-08-04.037593,"79.35,53.13"
2024-05-28_13-08-04.070307,"77.26,77.51"
2024-05-28_13-08-04.103184,"74.17,81.04"
2024-05-28_13-08-04.131864,"89.16,81.32"
2024-05-28_13-08-04.164691,"90.98,87.13"
2024-05-28_13-08-04.197408,"104.70,84.77"
2024-05-28_13-08-04.230115,"86.36,78.58"
2024-05-28_13-08-04.262926,"90.10,55.72"
2024-05-28_13-08-04.295643,"75.42,54.18"
2024-05-28_13-08-04.328395,"73.14,60.31"
2024-05-28_13-08-04.357137,"78.76,72.78"
2024-05-28_13-08-04.389984,"75.22,92.33"
2024-05-28_13-08-04.422686,"87.52,81.48"
2024-05-28_13-08-04.455499,"85.61,81.31"
2024-05-28_13-08-04.488419,"102.88,81.84"
2024-05-28_13-08-04.521024,"88.55,88.20"
2024-05-28_13-08-04.553684,"111.18,70.35"
2024-05-28_13-08-04.582458,"86.10,52.75"
2024-05-28_13-08-04.615244,"67.17,54.79"
2024-05-28_13-08-04.648028,"70.19,61.05"
2024-05-28_13-08-04.680772,"73.68,65.39"
2024-05-28_13-08-04.713564,"88.88,83.06"
2024-05-28_13-08-04.746322,"76.50,78.97"
2024-05-28_13-08-04.779069,"84.00,88.50"
2024-05-28_13-08-04.807773,"93.56,83.99"
2024-05-28_13-08-04.840558,"76.42,74.74"
2024-05-28_13-08-04.873331,"106.27,69.08"
2024-05-28_13-08-04.906213,"71.84,57.30"
2024-05-28_13-08-04.939031,"77.51,49.74"
2024-05-28_13-08-04.971673,"69.24,74.70"
2024-05-28_13-08-05.004324,"73.96,80.99"
2024-05-28_13-08-05.033219,"93.87,82.46"
2024-05-28_13-08-05.066038,"96.25,91.84"
2024-05-28_13-08-05.098678,"92.06,84.97"
2024-05-28_13-08-05.131410,"98.77,82.60"
2024-05-28_13-08-05.164184,"88.81,77.95"
2024-05-28_13-08-05.196994,"97.87,51.87"
2024-05-28_13-08-05.231461,"69.23,59.52"
2024-05-28_13-08-05.258482,"75.25,57.33"
2024-05-28_13-08-05.291270,"66.99,88.22"
2024-05-28_13-08-05.324034,"77.14,81.24"
2024-05-28_13-08-05.356726,"70.41,80.99"
2024-05-28_13-08-05.389571,"102.91,97.19"
2024-05-28_13-08-05.422295,"91.45,80.33"
2024-05-28_13-08-05.455020,"101.97,82.42"
2024-05-28_13-08-05.487715,"102.90,72.34"
2024-05-28_13-08-05.516574,"88.21,46.40"
2024-05-28_13-08-05.549280,"68.67,60.66"
2024-05-28_13-08-05.582118,"67.73,59.06"
2024-05-28_13-08-05.614850,"63.94,97.15"
2024-05-28_13-08-05.647615,"90.56,83.34"
2024-05-28_13-08-05.680326,"84.96,76.31"
2024-05-28_13-08-05.713004,"102.91,94.53"
2024-05-28_13-08-05.741796,"99.58,75.68"
2024-05-28_13-08-05.774670,"76.23,83.84"
2024-05-28_13-08-05.807405,"111.28,57.85"
2024-05-28_13-08-05.840392,"74.17,55.64"
2024-05-28_13-08-05.872938,"66.68,55.76"
2024-05-28_13-08-05.905660,"83.73,57.63"
2024-05-28_13-08-05.934378,"73.78,76.72"
2024-05-28_13-08-05.967159,"86.87,90.04"
2024-05-28_13-08-05.999928,"88.80,80.44"
2024-05-28_13-08-06.032714,"97.05,82.99"
2024-05-28_13-08-06.065501,"90.49,77.39"
2024-05-28_13-08-06.098288,"96.29,82.64"
2024-05-28_13-08-06.130933,"105.07,57.36"
2024-05-28_13-08-06.159669,"63.67,56.68"
2024-05-28_13-08-06.192483,"66.40,56.15"
2024-05-28_13-08-06.225314,"80.40,57.96"
2024-05-28_13-08-06.258052,"80.57,72.05"
2024-05-28_13-08-06.290796,"88.28,91.30"
2024-05-28_13-08-06.323597,"89.52,87.06"
2024-05-28_13-08-06.356252,"86.61,81.51"
2024-05-28_13-08-06.389028,"97.13,77.55"
2024-05-28_13-08-06.417873,"103.07,81.49"
2024-05-28_13-08-06.450564,"91.55,54.06"
2024-05-28_13-08-06.483374,"61.33,55.50"
2024-05-28_13-08-06.516101,"80.44,53.55"
2024-05-28_13-08-06.548943,"71.20,96.98"
2024-05-28_13-08-06.581595,"82.70,80.63"
2024-05-28_13-08-06.614314,"94.67,80.83"
2024-05-28_13-08-06.643114,"90.12,87.00"
2024-05-28_13-08-06.675904,"98.35,82.38"
2024-05-28_13-08-06.708650,"101.16,84.36"
2024-05-28_13-08-06.741423,"95.12,70.27"
2024-05-28_13-08-06.774182,"88.95,52.43"
2024-05-28_13-08-06.807043,"59.45,59.42"
2024-05-28_13-08-06.839596,"85.93,49.03"
2024-05-28_13-08-06.868471,"68.85,97.56"
2024-05-28_13-08-06.901202,"73.58,80.77"
2024-05-28_13-08-06.933972,"93.92,82.31"
2024-05-28_13-08-06.966736,"99.01,80.75"
2024-05-28_13-08-06.999496,"94.38,82.05"
2024-05-28_13-08-07.032210,"106.81,80.13"
2024-05-28_13-08-07.064910,"97.48,53.14"
2024-05-28_13-08-07.093742,"71.22,53.71"
2024-05-28_13-08-07.126564,"73.94,60.82"
2024-05-28_13-08-07.159326,"77.53,80.40"
2024-05-28_13-08-07.192065,"74.99,88.13"
2024-05-28_13-08-07.224824,"87.68,81.07"
2024-05-28_13-08-07.257586,"93.55,78.74"
2024-05-28_13-08-07.290269,"106.48,93.59"
2024-05-28_13-08-07.319045,"83.85,81.54"
2024-05-28_13-08-07.351857,"99.31,68.26"
2024-05-28_13-08-07.384607,"89.13,57.10"
2024-05-28_13-08-07.417396,"67.39,50.08"
2024-05-28_13-08-07.450141,"74.50,89.77"
2024-05-28_13-08-07.482877,"67.95,82.70"
2024-05-28_13-08-07.515594,"86.49,85.40"
2024-05-28_13-08-07.544381,"87.20,84.18"
2024-05-28_13-08-07.577134,"90.44,79.69"
2024-05-28_13-08-07.609923,"107.14,84.23"
2024-05-28_13-08-07.642769,"101.35,79.78"
2024-05-28_13-08-07.675551,"96.21,53.79"
2024-05-28_13-08-07.708220,"73.73,59.54"
2024-05-28_13-08-07.740920,"74.86,59.04"
2024-05-28_13-08-07.769707,"68.25,57.20"
2024-05-28_13-08-07.802437,"77.00,79.24"
2024-05-28_13-08-07.835210,"87.88,84.56"
2024-05-28_13-08-07.868107,"98.04,89.12"
2024-05-28_13-08-07.900792,"89.39,85.04"
2024-05-28_13-08-07.933539,"99.37,79.45"
2024-05-28_13-08-07.966226,"88.79,80.42"
2024-05-28_13-08-07.995009,"95.32,46.81"
2024-05-28_13-08-08.027793,"70.80,60.73"
2024-05-28_13-08-08.060546,"69.47,58.74"
2024-05-28_13-08-08.093345,"68.26,60.70"
2024-05-28_13-08-08.126082,"85.01,84.76"
2024-05-28_13-08-08.158830,"68.12,78.12"
2024-05-28_13-08-08.191531,"91.96,98.70"
2024-05-28_13-08-08.220313,"96.24,79.41"
2024-05-28_13-08-08.253081,"93.23,84.34"
2024-05-28_13-08-08.285880,"92.95,58.98"
2024-05-28_13-08-08.318613,"76.91,55.83"
2024-05-28_13-08-08.351389,"67.55,57.17"
2024-05-28_13-08-08.384297,"70.42,57.76"
2024-05-28_13-08-08.416896,"73.02,92.12"
2024-05-28_13-08-08.445711,"84.47,91.24"
2024-05-28_13-08-08.478469,"86.39,80.96"
2024-05-28_13-08-08.511182,"93.82,85.09"
2024-05-28_13-08-08.546702,"91.10,77.76"
2024-05-28_13-08-08.577745,"104.45,82.10"
2024-05-28_13-08-08.609895,"81.16,59.33"
2024-05-28_13-08-08.642269,"68.74,56.43"
2024-05-28_13-08-08.671024,"77.57,53.96"
2024-05-28_13-08-08.703783,"79.65,59.14"
2024-05-28_13-08-08.736697,"78.39,76.65"
2024-05-28_13-08-08.769337,"76.71,96.24"
2024-05-28_13-08-08.802031,"87.15,87.77"
2024-05-28_13-08-08.834887,"86.37,81.95"
2024-05-28_13-08-08.867512,"92.72,77.41"
2024-05-28_13-08-08.900476,"102.57,81.05"
2024-05-28_13-08-08.929082,"90.09,53.93"
2024-05-28_13-08-08.962178,"71.67,54.91"
2024-05-28_13-08-08.994809,"82.91,52.63"
2024-05-28_13-08-09.027397,"74.71,84.09"
2024-05-28_13-08-09.060204,"79.78,84.37"
2024-05-28_13-08-09.093232,"88.07,84.37"
2024-05-28_13-08-09.125573,"83.15,88.80"
2024-05-28_13-08-09.154401,"88.47,86.18"
2024-05-28_13-08-09.187194,"94.32,88.26"
2024-05-28_13-08-09.219928,"100.68,55.47"
2024-05-28_13-08-09.252705,"87.82,53.66"
2024-05-28_13-08-09.285507,"59.89,60.17"
2024-05-28_13-08-09.318193,"85.86,48.35"
2024-05-28_13-08-09.350894,"66.41,85.92"
2024-05-28_13-08-09.379704,"80.92,83.08"
2024-05-28_13-08-09.412761,"84.47,84.33"
2024-05-28_13-08-09.445290,"87.96,89.89"
2024-05-28_13-08-09.477997,"84.80,89.25"
2024-05-28_13-08-09.510784,"85.06,80.01"
2024-05-28_13-08-09.543513,"98.41,53.41"
2024-05-28_13-08-09.576191,"70.99,53.75"
2024-05-28_13-08-09.605015,"74.74,60.77"
2024-05-28_13-08-09.637753,"77.09,82.55"
2024-05-28_13-08-09.671078,"71.90,88.86"
2024-05-28_13-08-09.703371,"74.25,83.22"
2024-05-28_13-08-09.736099,"79.89,94.44"
2024-05-28_13-08-09.768821,"105.14,94.58"
2024-05-28_13-08-09.801503,"79.88,77.76"
2024-05-28_13-08-09.830356,"109.66,68.19"
2024-05-28_13-08-09.863077,"96.12,57.16"
2024-05-28_13-08-09.896535,"69.19,49.82"
2024-05-28_13-08-09.928748,"81.63,59.68"
2024-05-28_13-08-09.982392,"70.22,74.32"
2024-05-28_13-08-09.996431,"67.19,97.13"
2024-05-28_13-08-10.026828,"79.61,98.56"
2024-05-28_13-08-10.055675,"85.85,93.65"
2024-05-28_13-08-10.088439,"91.88,86.62"
2024-05-28_13-08-10.121202,"93.56,81.98"
2024-05-28_13-08-10.153971,"103.07,69.24"
2024-05-28_13-08-10.186804,"99.21,57.87"
2024-05-28_13-08-10.219595,"69.04,56.51"
2024-05-28_13-08-10.252111,"85.57,53.52"
2024-05-28_13-08-10.280913,"71.20,79.75"
2024-05-28_13-08-10.313718,"91.81,84.88"
2024-05-28_13-08-10.346501,"87.79,90.72"
2024-05-28_13-08-10.379232,"86.75,83.92"
2024-05-28_13-08-10.412117,"99.76,79.46"
2024-05-28_13-08-10.444782,"93.32,84.40"
2024-05-28_13-08-10.477543,"107.99,64.81"
2024-05-28_13-08-10.506333,"88.42,58.55"
2024-05-28_13-08-10.539057,"61.28,57.04"
2024-05-28_13-08-10.571775,"80.97,52.57"
2024-05-28_13-08-10.604612,"77.04,71.23"
2024-05-28_13-08-10.637355,"88.56,77.57"
2024-05-28_13-08-10.670086,"91.02,90.09"
2024-05-28_13-08-10.702816,"89.77,79.99"
2024-05-28_13-08-10.731547,"100.35,78.31"
2024-05-28_13-08-10.764414,"92.76,83.40"
2024-05-28_13-08-10.797111,"92.91,70.73"
2024-05-28_13-08-10.829953,"79.70,55.19"
2024-05-28_13-08-10.862708,"61.45,55.80"
2024-05-28_13-08-10.895383,"79.47,52.52"
2024-05-28_13-08-10.928374,"72.05,81.07"
2024-05-28_13-08-10.956911,"74.26,87.53"
2024-05-28_13-08-10.989657,"79.49,95.79"
2024-05-28_13-08-11.022449,"89.35,83.74"
2024-05-28_13-08-11.055211,"90.47,84.78"
2024-05-28_13-08-11.088117,"105.21,88.31"
2024-05-28_13-08-11.120859,"88.37,55.40"
2024-05-28_13-08-11.153428,"88.96,54.73"
2024-05-28_13-08-11.182220,"62.92,58.53"
2024-05-28_13-08-11.215044,"85.80,48.97"
2024-05-28_13-08-11.247739,"63.53,79.99"
2024-05-28_13-08-11.280531,"86.98,79.53"
2024-05-28_13-08-11.313275,"93.24,81.84"
2024-05-28_13-08-11.346034,"99.40,82.28"
2024-05-28_13-08-11.378765,"91.98,81.21"
2024-05-28_13-08-11.407513,"82.30,87.69"
2024-05-28_13-08-11.440348,"103.48,53.66"
2024-05-28_13-08-11.473095,"76.90,53.78"
2024-05-28_13-08-11.505849,"60.92,60.30"
2024-05-28_13-08-11.538603,"80.93,76.50"
2024-05-28_13-08-11.571404,"74.03,72.00"
2024-05-28_13-08-11.604115,"70.10,81.00"
2024-05-28_13-08-11.632866,"85.88,82.23"
2024-05-28_13-08-11.665624,"104.63,97.52"
2024-05-28_13-08-11.698448,"85.56,76.46"
2024-05-28_13-08-11.731137,"84.54,86.96"
2024-05-28_13-08-11.763930,"98.99,57.81"
2024-05-28_13-08-11.796726,"76.03,47.97"
2024-05-28_13-08-11.829436,"66.10,61.02"
2024-05-28_13-08-11.858161,"77.63,59.80"
2024-05-28_13-08-11.890912,"68.96,74.02"
2024-05-28_13-08-11.923700,"93.69,83.23"
2024-05-28_13-08-11.956522,"84.74,76.92"
2024-05-28_13-08-11.989268,"102.08,91.57"
2024-05-28_13-08-12.022065,"92.76,75.08"
2024-05-28_13-08-12.054696,"77.50,86.45"
2024-05-28_13-08-12.087489,"105.12,57.41"
2024-05-28_13-08-12.116210,"71.05,56.26"
2024-05-28_13-08-12.148981,"65.95,55.22"
2024-05-28_13-08-12.181793,"78.99,57.83"
2024-05-28_13-08-12.214502,"83.06,71.55"
2024-05-28_13-08-12.247386,"84.68,91.30"
2024-05-28_13-08-12.280036,"83.91,79.60"
2024-05-28_13-08-12.312731,"86.37,83.04"
2024-05-28_13-08-12.341630,"89.72,77.97"
2024-05-28_13-08-12.374334,"85.42,83.06"
2024-05-28_13-08-12.407101,"100.39,57.93"
2024-05-28_13-08-12.439881,"64.48,57.17"
2024-05-28_13-08-12.472653,"67.97,55.09"
2024-05-28_13-08-12.505341,"80.54,57.37"
2024-05-28_13-08-12.538061,"76.65,73.73"
2024-05-28_13-08-12.567050,"91.91,88.71"
2024-05-28_13-08-12.599642,"89.35,78.48"
2024-05-28_13-08-12.632406,"95.70,82.38"
2024-05-28_13-08-12.665236,"77.75,75.60"
2024-05-28_13-08-12.697941,"87.69,88.41"
2024-05-28_13-08-12.730672,"105.70,51.89"
2024-05-28_13-08-12.763370,"72.88,53.05"
2024-05-28_13-08-12.792210,"65.28,54.89"
2024-05-28_13-08-12.824938,"75.82,89.92"
2024-05-28_13-08-12.857715,"81.57,80.30"
2024-05-28_13-08-12.890507,"87.03,83.61"
2024-05-28_13-08-12.923283,"86.13,90.05"
2024-05-28_13-08-12.956001,"98.89,84.55"
2024-05-28_13-08-12.988706,"105.38,79.09"
2024-05-28_13-08-13.017538,"87.18,54.98"
2024-05-28_13-08-13.050256,"109.02,53.68"
2024-05-28_13-08-13.083049,"73.46,57.09"
2024-05-28_13-08-13.115809,"77.24,50.93"
2024-05-28_13-08-13.148568,"68.02,62.28"
2024-05-28_13-08-13.181342,"77.99,80.53"
2024-05-28_13-08-13.214001,"87.01,85.19"
2024-05-28_13-08-13.242764,"96.78,88.57"
2024-05-28_13-08-13.275624,"93.17,82.89"
2024-05-28_13-08-13.308380,"100.51,85.52"
2024-05-28_13-08-13.341120,"88.23,79.50"
2024-05-28_13-08-13.373887,"99.56,52.14"
2024-05-28_13-08-13.406617,"74.83,59.30"
2024-05-28_13-08-13.439312,"75.49,58.59"
2024-05-28_13-08-13.468144,"69.83,74.93"
2024-05-28_13-08-13.501008,"73.46,81.27"
2024-05-28_13-08-13.533701,"77.06,88.46"
2024-05-28_13-08-13.566508,"100.25,86.88"
2024-05-28_13-08-13.599214,"89.04,87.68"
2024-05-28_13-08-13.631955,"106.17,77.66"
2024-05-28_13-08-13.664646,"99.12,78.08"
2024-05-28_13-08-13.693446,"103.77,64.71"
2024-05-28_13-08-13.726231,"77.90,58.69"
2024-05-28_13-08-13.759255,"55.12,58.81"
2024-05-28_13-08-13.791781,"73.78,75.71"
2024-05-28_13-08-13.824507,"76.18,88.47"
2024-05-28_13-08-13.857291,"80.93,76.63"
2024-05-28_13-08-13.890048,"85.60,91.34"
2024-05-28_13-08-13.918763,"90.88,85.59"
2024-05-28_13-08-13.951758,"102.42,78.23"
2024-05-28_13-08-13.984430,"105.60,76.22"
2024-05-28_13-08-14.017079,"98.99,55.22"
2024-05-28_13-08-14.049841,"78.17,54.74"
2024-05-28_13-08-14.082566,"59.60,56.08"
2024-05-28_13-08-14.115290,"79.03,54.38"
2024-05-28_13-08-14.144036,"75.87,80.88"
2024-05-28_13-08-14.176834,"86.12,81.62"
2024-05-28_13-08-14.209629,"88.41,80.81"
2024-05-28_13-08-14.242457,"90.20,88.81"
2024-05-28_13-08-14.275219,"104.19,84.75"
2024-05-28_13-08-14.307996,"106.64,77.81"
2024-05-28_13-08-14.340614,"94.04,55.50"
2024-05-28_13-08-14.369394,"78.00,54.06"
2024-05-28_13-08-14.402186,"58.87,59.41"
2024-05-28_13-08-14.434947,"82.49,79.29"
2024-05-28_13-08-14.467710,"69.73,96.09"
2024-05-28_13-08-14.500450,"71.49,82.16"
2024-05-28_13-08-14.533238,"89.71,82.92"
2024-05-28_13-08-14.565966,"98.87,93.21"
2024-05-28_13-08-14.594722,"80.23,80.97"
2024-05-28_13-08-14.627499,"106.15,91.51"
2024-05-28_13-08-14.660239,"103.70,53.01"
2024-05-28_13-08-14.693026,"73.78,53.77"
2024-05-28_13-08-14.725944,"60.93,61.08"
2024-05-28_13-08-14.758732,"84.01,58.18"
2024-05-28_13-08-14.791236,"63.57,77.05"
2024-05-28_13-08-14.820014,"82.45,80.02"
2024-05-28_13-08-14.852781,"91.79,82.25"
2024-05-28_13-08-14.885528,"101.78,95.35"
2024-05-28_13-08-14.918422,"91.51,80.43"
2024-05-28_13-08-14.951109,"100.83,85.25"
2024-05-28_13-08-14.983888,"98.27,58.53"
2024-05-28_13-08-15.016559,"89.10,47.23"
2024-05-28_13-08-15.045318,"68.20,61.74"
2024-05-28_13-08-15.078111,"68.19,58.90"
2024-05-28_13-08-15.110889,"63.08,93.64"
2024-05-28_13-08-15.143662,"83.46,87.22"
2024-05-28_13-08-15.176447,"81.82,78.41"
2024-05-28_13-08-15.209202,"102.41,98.31"
2024-05-28_13-08-15.241947,"96.45,78.64"
2024-05-28_13-08-15.274603,"85.89,81.27"
2024-05-28_13-08-15.303401,"97.55,79.60"
2024-05-28_13-08-15.336163,"89.19,55.12"
2024-05-28_13-08-15.369086,"71.58,54.71"
2024-05-28_13-08-15.401744,"73.74,56.29"
2024-05-28_13-08-15.434496,"74.58,56.09"
2024-05-28_13-08-15.467222,"79.67,91.61"
2024-05-28_13-08-15.499924,"88.42,82.29"
2024-05-28_13-08-15.528708,"94.29,79.61"
2024-05-28_13-08-15.561498,"92.53,87.75"
2024-05-28_13-08-15.594237,"96.17,85.14"
2024-05-28_13-08-15.627029,"96.92,79.70"
2024-05-28_13-08-15.659822,"89.43,55.50"
2024-05-28_13-08-15.692537,"75.03,54.35"
2024-05-28_13-08-15.725218,"58.72,59.74"
2024-05-28_13-08-15.754040,"81.71,69.02"
2024-05-28_13-08-15.786792,"73.08,93.90"
2024-05-28_13-08-15.819564,"87.44,80.49"
2024-05-28_13-08-15.852340,"93.67,81.88"
2024-05-28_13-08-15.885424,"99.46,91.77"
2024-05-28_13-08-15.917863,"93.75,84.25"
2024-05-28_13-08-15.950573,"107.52,70.08"
2024-05-28_13-08-15.979353,"94.42,52.82"
2024-05-28_13-08-16.012132,"76.94,53.53"
2024-05-28_13-08-16.044904,"61.70,60.65"
2024-05-28_13-08-16.077762,"83.40,58.82"
2024-05-28_13-08-16.110563,"67.74,87.44"
2024-05-28_13-08-16.143171,"81.80,80.85"
2024-05-28_13-08-16.175849,"94.51,80.55"
2024-05-28_13-08-16.204710,"93.06,91.83"
2024-05-28_13-08-16.237421,"96.62,75.70"
2024-05-28_13-08-16.270229,"93.65,86.13"
2024-05-28_13-08-16.302982,"102.50,57.31"
2024-05-28_13-08-16.335772,"82.72,47.18"
2024-05-28_13-08-16.368515,"69.53,59.00"
2024-05-28_13-08-16.401204,"80.94,58.20"
2024-05-28_13-08-16.429999,"63.83,79.48"
2024-05-28_13-08-16.462789,"89.01,84.44"
2024-05-28_13-08-16.495500,"65.14,78.61"
2024-05-28_13-08-16.528298,"98.11,94.91"
2024-05-28_13-08-16.561081,"94.91,77.73"
2024-05-28_13-08-16.593827,"96.91,80.87"
2024-05-28_13-08-16.626516,"111.19,82.49"
2024-05-28_13-08-16.655262,"87.00,55.40"
2024-05-28_13-08-16.688116,"72.04,55.96"
2024-05-28_13-08-16.720887,"74.95,57.15"
2024-05-28_13-08-16.753630,"74.19,87.48"
2024-05-28_13-08-16.786417,"78.78,92.12"
2024-05-28_13-08-16.819114,"88.31,82.83"
2024-05-28_13-08-16.851846,"87.59,81.63"
2024-05-28_13-08-16.880575,"89.66,83.14"
2024-05-28_13-08-16.913349,"94.44,84.11"
2024-05-28_13-08-16.946394,"97.27,78.77"
2024-05-28_13-08-16.979003,"89.69,55.95"
2024-05-28_13-08-17.011797,"81.89,53.18"
2024-05-28_13-08-17.044599,"59.89,59.06"
2024-05-28_13-08-17.077143,"83.11,82.41"
2024-05-28_13-08-17.105897,"70.40,85.07"
2024-05-28_13-08-17.138668,"73.14,80.47"
2024-05-28_13-08-17.171467,"93.72,82.20"
2024-05-28_13-08-17.204264,"98.76,85.80"
2024-05-28_13-08-17.237134,"89.18,82.82"
2024-05-28_13-08-17.269847,"94.93,68.46"
2024-05-28_13-08-17.302668,"84.30,53.21"
2024-05-28_13-08-17.331257,"74.45,55.50"
2024-05-28_13-08-17.364019,"59.65,61.63"
2024-05-28_13-08-17.396821,"84.91,59.34"
2024-05-28_13-08-17.429626,"64.25,92.07"
2024-05-28_13-08-17.462431,"79.13,80.65"
2024-05-28_13-08-17.495184,"71.88,85.09"
2024-05-28_13-08-17.527780,"101.37,92.73"
2024-05-28_13-08-17.556638,"78.09,81.42"
2024-05-28_13-08-17.589386,"101.40,82.65"
2024-05-28_13-08-17.622051,"87.08,58.41"
2024-05-28_13-08-17.654897,"91.55,47.13"
2024-05-28_13-08-17.687665,"73.16,60.14"
2024-05-28_13-08-17.720432,"70.08,58.33"
2024-05-28_13-08-17.753084,"67.12,89.31"
2024-05-28_13-08-17.781848,"83.66,84.22"
2024-05-28_13-08-17.814682,"82.37,76.99"
2024-05-28_13-08-17.847426,"101.36,90.39"
2024-05-28_13-08-17.880163,"91.95,85.12"
2024-05-28_13-08-17.912977,"92.63,79.41"
2024-05-28_13-08-17.945921,"95.32,74.65"
2024-05-28_13-08-17.978407,"96.07,55.73"
2024-05-28_13-08-18.007204,"82.45,55.33"
2024-05-28_13-08-18.039934,"59.89,57.29"
2024-05-28_13-08-18.072786,"77.98,72.65"
2024-05-28_13-08-18.105685,"69.30,95.65"
2024-05-28_13-08-18.138348,"80.34,85.32"
2024-05-28_13-08-18.171080,"80.56,86.08"
2024-05-28_13-08-18.203809,"88.72,90.13"
2024-05-28_13-08-18.232529,"98.12,84.73"
2024-05-28_13-08-18.265233,"113.77,87.99"
2024-05-28_13-08-18.298034,"96.73,55.40"
2024-05-28_13-08-18.330807,"89.15,53.47"
2024-05-28_13-08-18.363583,"60.74,60.00"
2024-05-28_13-08-18.396361,"87.81,50.72"
2024-05-28_13-08-18.429084,"61.31,83.88"
2024-05-28_13-08-18.457809,"80.81,81.36"
2024-05-28_13-08-18.490596,"87.43,86.25"
2024-05-28_13-08-18.523399,"94.49,90.66"
2024-05-28_13-08-18.556154,"94.80,82.66"
2024-05-28_13-08-18.588849,"90.69,86.47"
2024-05-28_13-08-18.621710,"103.50,78.57"
2024-05-28_13-08-18.654281,"89.88,53.83"
2024-05-28_13-08-18.687029,"67.59,61.15"
2024-05-28_13-08-18.715973,"74.65,58.80"
2024-05-28_13-08-18.748639,"65.31,92.63"
2024-05-28_13-08-18.781411,"77.74,79.90"
2024-05-28_13-08-18.814179,"81.26,82.42"
2024-05-28_13-08-18.846969,"102.53,89.03"
2024-05-28_13-08-18.879700,"89.83,82.33"
2024-05-28_13-08-18.912370,"98.82,78.74"
2024-05-28_13-08-18.941208,"86.30,76.93"
2024-05-28_13-08-18.973933,"95.59,47.27"
2024-05-28_13-08-19.006730,"74.36,60.17"
2024-05-28_13-08-19.039530,"70.58,59.13"
2024-05-28_13-08-19.072282,"70.75,55.28"
2024-05-28_13-08-19.104982,"79.05,87.51"
2024-05-28_13-08-19.137679,"80.39,78.28"
2024-05-28_13-08-19.166486,"100.71,91.03"
2024-05-28_13-08-19.199332,"90.66,88.13"
2024-05-28_13-08-19.232017,"102.76,79.48"
2024-05-28_13-08-19.264833,"95.66,75.53"
2024-05-28_13-08-19.297569,"95.83,71.72"
2024-05-28_13-08-19.330297,"77.36,55.14"
2024-05-28_13-08-19.363040,"61.99,56.85"
2024-05-28_13-08-19.392095,"76.93,56.54"
2024-05-28_13-08-19.424777,"71.59,97.07"
2024-05-28_13-08-19.457915,"68.55,84.91"
2024-05-28_13-08-19.493965,"71.28,89.83"
2024-05-28_13-08-19.525351,"82.33,84.82"
2024-05-28_13-08-19.555854,"95.60,89.96"
2024-05-28_13-08-19.588332,"92.92,56.08"
2024-05-28_13-08-19.617082,"103.38,55.76"
2024-05-28_13-08-19.649893,"92.10,53.23"
2024-05-28_13-08-19.682725,"61.53,59.58"
2024-05-28_13-08-19.715539,"89.19,48.25"
2024-05-28_13-08-19.748300,"61.85,84.74"
2024-05-28_13-08-19.780997,"79.06,81.35"
2024-05-28_13-08-19.813637,"87.72,85.19"
2024-05-28_13-08-19.842412,"97.39,91.10"
2024-05-28_13-08-19.875226,"91.38,86.88"
2024-05-28_13-08-19.908086,"99.74,84.22"
2024-05-28_13-08-19.940867,"106.25,80.33"
2024-05-28_13-08-19.973608,"94.02,53.71"
2024-05-28_13-08-20.006296,"76.51,59.57"
2024-05-28_13-08-20.038953,"76.79,58.90"
2024-05-28_13-08-20.067734,"70.79,77.62"
2024-05-28_13-08-20.100504,"70.41,80.95"
2024-05-28_13-08-20.133253,"85.53,85.26"
2024-05-28_13-08-20.166167,"99.83,89.54"
2024-05-28_13-08-20.198784,"88.03,91.70"
2024-05-28_13-08-20.231588,"103.69,78.69"
2024-05-28_13-08-20.264286,"80.60,83.15"
2024-05-28_13-08-20.293023,"96.60,64.51"
2024-05-28_13-08-20.325965,"89.24,58.86"
2024-05-28_13-08-20.358701,"56.35,57.76"
2024-05-28_13-08-20.391408,"80.33,54.41"
2024-05-28_13-08-20.424190,"75.78,88.05"
2024-05-28_13-08-20.456912,"81.08,80.80"
2024-05-28_13-08-20.489624,"74.82,92.52"
2024-05-28_13-08-20.518408,"88.66,91.34"
2024-05-28_13-08-20.551170,"93.79,81.52"
2024-05-28_13-08-20.583912,"92.23,75.73"
2024-05-28_13-08-20.616639,"96.58,88.65"
2024-05-28_13-08-20.649470,"102.00,53.41"
2024-05-28_13-08-20.682210,"70.42,55.37"
2024-05-28_13-08-20.714909,"65.78,54.92"
2024-05-28_13-08-20.743726,"79.00,59.52"
2024-05-28_13-08-20.776502,"76.34,86.64"
2024-05-28_13-08-20.809436,"82.98,86.27"
2024-05-28_13-08-20.842214,"82.60,81.93"
2024-05-28_13-08-20.875135,"74.80,94.39"
2024-05-28_13-08-20.907591,"101.81,90.59"
2024-05-28_13-08-20.940244,"86.07,75.60"
2024-05-28_13-08-20.972921,"107.09,69.32"
2024-05-28_13-08-21.001769,"78.61,57.57"
2024-05-28_13-08-21.034530,"65.72,51.91"
2024-05-28_13-08-21.069110,"75.03,61.74"
2024-05-28_13-08-21.100387,"67.76,82.84"
2024-05-28_13-08-21.132946,"77.68,90.10"
2024-05-28_13-08-21.165527,"77.45,85.80"
2024-05-28_13-08-21.198209,"87.10,94.00"
2024-05-28_13-08-21.227160,"102.51,88.09"
2024-05-28_13-08-21.259925,"100.94,80.00"
2024-05-28_13-08-21.292649,"90.29,69.88"
2024-05-28_13-08-21.325412,"95.97,59.09"
2024-05-28_13-08-21.359213,"61.71,58.65"
2024-05-28_13-08-21.390869,"78.96,55.73"
2024-05-28_13-08-21.423557,"73.66,79.99"
2024-05-28_13-08-21.452835,"83.69,89.60"
2024-05-28_13-08-21.485186,"73.77,91.31"
2024-05-28_13-08-21.517936,"85.21,79.68"
2024-05-28_13-08-21.550799,"95.61,84.62"
2024-05-28_13-08-21.583508,"90.28,78.09"
2024-05-28_13-08-21.616164,"94.29,81.72"
2024-05-28_13-08-21.648879,"103.64,56.50"
2024-05-28_13-08-21.677696,"71.35,56.59"
2024-05-28_13-08-21.710482,"68.61,55.79"
2024-05-28_13-08-21.743234,"83.89,70.63"
2024-05-28_13-08-21.776032,"72.30,85.12"
2024-05-28_13-08-21.808789,"83.65,95.37"
2024-05-28_13-08-21.841497,"78.19,69.84"
2024-05-28_13-08-21.874197,"93.78,79.37"
2024-05-28_13-08-21.902997,"92.63,86.43"
2024-05-28_13-08-21.935832,"101.20,80.23"
2024-05-28_13-08-21.968677,"111.17,70.87"
2024-05-28_13-08-22.001459,"97.28,52.97"
2024-05-28_13-08-22.034126,"70.32,56.59"
2024-05-28_13-08-22.066805,"77.67,60.31"
2024-05-28_13-08-22.099501,"77.53,82.17"
2024-05-28_13-08-22.128397,"74.83,91.77"
2024-05-28_13-08-22.161177,"70.87,83.26"
2024-05-28_13-08-22.193879,"81.80,84.47"
2024-05-28_13-08-22.226762,"103.33,102.04"
2024-05-28_13-08-22.259405,"86.80,78.22"
2024-05-28_13-08-22.292104,"82.13,85.73"
2024-05-28_13-08-22.324884,"102.05,59.48"
2024-05-28_13-08-22.353625,"82.26,49.22"
2024-05-28_13-08-22.386390,"69.67,60.83"
2024-05-28_13-08-22.419159,"69.82,60.78"
2024-05-28_13-08-22.451957,"65.15,95.51"
2024-05-28_13-08-22.494430,"82.51,88.63"
2024-05-28_13-08-22.517499,"70.14,96.97"
2024-05-28_13-08-22.550153,"79.64,100.42"
2024-05-28_13-08-22.578981,"82.79,80.41"
2024-05-28_13-08-22.611745,"90.69,77.91"
2024-05-28_13-08-22.644492,"94.01,57.14"
2024-05-28_13-08-22.677263,"86.91,55.96"
2024-05-28_13-08-22.710003,"73.33,60.38"
2024-05-28_13-08-22.742738,"74.24,58.33"
2024-05-28_13-08-22.775423,"77.24,57.51"
2024-05-28_13-08-22.804212,"72.18,98.49"
2024-05-28_13-08-22.836996,"73.27,71.95"
2024-05-28_13-08-22.869752,"89.90,82.36"
2024-05-28_13-08-22.902748,"89.73,81.03"
2024-05-28_13-08-22.935325,"104.62,88.62"
2024-05-28_13-08-22.968186,"88.56,72.02"
2024-05-28_13-08-23.000821,"88.11,56.31"
2024-05-28_13-08-23.029585,"84.98,58.50"
2024-05-28_13-08-23.062472,"72.82,68.33"
2024-05-28_13-08-23.095146,"86.93,96.35"
2024-05-28_13-08-23.127965,"67.51,90.14"
2024-05-28_13-08-23.160696,"78.55,85.81"
2024-05-28_13-08-23.193394,"75.24,89.77"
2024-05-28_13-08-23.226136,"96.02,88.05"
2024-05-28_13-08-23.254858,"96.56,84.91"
2024-05-28_13-08-23.287767,"91.68,84.69"
2024-05-28_13-08-23.320403,"104.89,51.56"
2024-05-28_13-08-23.353223,"91.17,54.28"
2024-05-28_13-08-23.386006,"79.08,59.34"
2024-05-28_13-08-23.418838,"79.85,85.51"
2024-05-28_13-08-23.451432,"69.49,76.16"
2024-05-28_13-08-23.480205,"68.81,85.25"
2024-05-28_13-08-23.512974,"89.82,84.39"
2024-05-28_13-08-23.545730,"95.92,90.02"
2024-05-28_13-08-23.578488,"85.88,83.79"
2024-05-28_13-08-23.611285,"94.23,78.59"
2024-05-28_13-08-23.644010,"83.69,73.10"
2024-05-28_13-08-23.676722,"102.82,64.99"
2024-05-28_13-08-23.705456,"81.43,58.33"
2024-05-28_13-08-23.738267,"54.59,58.05"
2024-05-28_13-08-23.771011,"76.92,53.21"
2024-05-28_13-08-23.803835,"75.43,76.02"
2024-05-28_13-08-23.836619,"88.59,78.17"
2024-05-28_13-08-23.869370,"90.88,91.08"
2024-05-28_13-08-23.902108,"89.22,85.69"
2024-05-28_13-08-23.930839,"75.14,80.25"
2024-05-28_13-08-23.963570,"96.58,76.74"
2024-05-28_13-08-23.996369,"99.36,81.11"
2024-05-28_13-08-24.029111,"95.56,52.57"
2024-05-28_13-08-24.061848,"63.89,55.11"
2024-05-28_13-08-24.094636,"66.01,54.58"
2024-05-28_13-08-24.127350,"76.76,59.19"
2024-05-28_13-08-24.156067,"73.87,85.30"
2024-05-28_13-08-24.188874,"89.90,81.86"
2024-05-28_13-08-24.221635,"88.65,79.97"
2024-05-28_13-08-24.254434,"94.22,77.48"
2024-05-28_13-08-24.287265,"112.15,88.31"
2024-05-28_13-08-24.319956,"71.80,84.53"
2024-05-28_13-08-24.352688,"107.22,68.36"
2024-05-28_13-08-24.385348,"80.83,56.84"
2024-05-28_13-08-24.414145,"66.07,49.84"
2024-05-28_13-08-24.446966,"76.79,60.22"
2024-05-28_13-08-24.479819,"69.56,62.76"
2024-05-28_13-08-24.512554,"81.98,85.81"
2024-05-28_13-08-24.545301,"95.12,84.39"
2024-05-28_13-08-24.578005,"85.54,86.26"
2024-05-28_13-08-24.610688,"102.79,87.64"
2024-05-28_13-08-24.639459,"82.11,73.36"
2024-05-28_13-08-24.672296,"77.62,87.29"
2024-05-28_13-08-24.705018,"107.05,57.64"
2024-05-28_13-08-24.737822,"74.66,55.61"
2024-05-28_13-08-24.770557,"67.51,55.25"
2024-05-28_13-08-24.803287,"83.22,57.67"
2024-05-28_13-08-24.835987,"72.56,94.86"
2024-05-28_13-08-24.864848,"78.58,92.65"
2024-05-28_13-08-24.897595,"87.98,82.78"
2024-05-28_13-08-24.930423,"93.90,78.41"
2024-05-28_13-08-24.963123,"92.50,84.35"
2024-05-28_13-08-24.995923,"93.17,84.36"
2024-05-28_13-08-25.028603,"84.30,89.11"
2024-05-28_13-08-25.061303,"89.75,55.67"
2024-05-28_13-08-25.090148,"77.26,53.53"
2024-05-28_13-08-25.122882,"59.50,59.40"
2024-05-28_13-08-25.155641,"85.22,48.82"
2024-05-28_13-08-25.188384,"63.33,81.12"
2024-05-28_13-08-25.221194,"84.86,79.65"
2024-05-28_13-08-25.253886,"93.53,82.04"
2024-05-28_13-08-25.286628,"99.08,77.86"
2024-05-28_13-08-25.315442,"84.74,82.23"
2024-05-28_13-08-25.348214,"78.37,83.12"
2024-05-28_13-08-25.381015,"102.71,66.72"
2024-05-28_13-08-25.413716,"89.02,52.61"
2024-05-28_13-08-25.446470,"64.42,59.66"
2024-05-28_13-08-25.479205,"73.89,58.94"
2024-05-28_13-08-25.511907,"68.91,74.16"
2024-05-28_13-08-25.540733,"74.72,79.34"
2024-05-28_13-08-25.573495,"87.66,83.35"
2024-05-28_13-08-25.606307,"101.70,88.71"
2024-05-28_13-08-25.639107,"88.27,91.19"
2024-05-28_13-08-25.671803,"92.29,77.35"
2024-05-28_13-08-25.704546,"90.59,80.17"
2024-05-28_13-08-25.737265,"98.07,64.15"
2024-05-28_13-08-25.766041,"91.13,57.35"
2024-05-28_13-08-25.798798,"55.98,57.54"
2024-05-28_13-08-25.831573,"66.44,55.52"
2024-05-28_13-08-25.864357,"77.20,60.07"
2024-05-28_13-08-25.897160,"82.16,72.67"
2024-05-28_13-08-25.929905,"75.30,91.10"
2024-05-28_13-08-25.962572,"87.84,78.82"
2024-05-28_13-08-25.991392,"93.82,84.76"
2024-05-28_13-08-26.024232,"99.40,76.93"
2024-05-28_13-08-26.056922,"82.99,84.35"
2024-05-28_13-08-26.089683,"104.78,68.96"
2024-05-28_13-08-26.122463,"76.94,53.88"
2024-05-28_13-08-26.155245,"64.79,54.25"
2024-05-28_13-08-26.187874,"68.92,63.30"
2024-05-28_13-08-26.216666,"72.49,66.56"
2024-05-28_13-08-26.249445,"84.63,83.24"
2024-05-28_13-08-26.282214,"76.69,80.83"
2024-05-28_13-08-26.314945,"93.26,77.99"
2024-05-28_13-08-26.347774,"107.08,93.81"
2024-05-28_13-08-26.380505,"91.28,78.17"
2024-05-28_13-08-26.413216,"109.37,67.40"
2024-05-28_13-08-26.441954,"99.21,56.93"
2024-05-28_13-08-26.474723,"72.98,47.63"
2024-05-28_13-08-26.507594,"67.62,59.23"
2024-05-28_13-08-26.540325,"77.45,87.36"
2024-05-28_13-08-26.573060,"67.15,74.85"
2024-05-28_13-08-26.605802,"94.51,82.78"
2024-05-28_13-08-26.638528,"84.74,76.24"
2024-05-28_13-08-26.667287,"102.53,94.89"
2024-05-28_13-08-26.700057,"93.95,78.94"
2024-05-28_13-08-26.732825,"72.40,79.90"
2024-05-28_13-08-26.765596,"98.33,81.66"
2024-05-28_13-08-26.798402,"88.49,54.74"
2024-05-28_13-08-26.831112,"69.58,55.72"
2024-05-28_13-08-26.863804,"73.44,57.12"
2024-05-28_13-08-26.892586,"76.34,76.79"
2024-05-28_13-08-26.925423,"74.37,93.25"
2024-05-28_13-08-26.958194,"74.53,81.91"
2024-05-28_13-08-26.990916,"92.85,81.09"
2024-05-28_13-08-27.023749,"90.10,81.15"
2024-05-28_13-08-27.056463,"99.75,83.60"
2024-05-28_13-08-27.089132,"79.23,82.30"
2024-05-28_13-08-27.118131,"93.40,68.62"
2024-05-28_13-08-27.150670,"95.84,52.14"
2024-05-28_13-08-27.183439,"63.12,58.24"
2024-05-28_13-08-27.216236,"75.82,51.55"
2024-05-28_13-08-27.249036,"65.90,64.16"
2024-05-28_13-08-27.281738,"73.78,80.45"
2024-05-28_13-08-27.314426,"92.22,82.00"
2024-05-28_13-08-27.343217,"98.95,81.24"
2024-05-28_13-08-27.375995,"90.82,79.65"
2024-05-28_13-08-27.408762,"107.96,82.81"
2024-05-28_13-08-27.441557,"83.96,70.49"
2024-05-28_13-08-27.474292,"100.92,69.10"
2024-05-28_13-08-27.507068,"83.84,57.98"
2024-05-28_13-08-27.539761,"62.61,57.12"
2024-05-28_13-08-27.568520,"76.11,54.45"
2024-05-28_13-08-27.601308,"70.96,79.18"
2024-05-28_13-08-27.634048,"91.79,85.05"
2024-05-28_13-08-27.666873,"89.05,90.22"
2024-05-28_13-08-27.699699,"85.88,87.44"
2024-05-28_13-08-27.732565,"97.12,81.88"
2024-05-28_13-08-27.765090,"97.81,76.81"
2024-05-28_13-08-27.793812,"95.82,85.16"
2024-05-28_13-08-27.826657,"101.57,57.48"
2024-05-28_13-08-27.859398,"65.88,56.46"
2024-05-28_13-08-27.892208,"71.01,53.26"
2024-05-28_13-08-27.924957,"83.38,66.11"
2024-05-28_13-08-27.957715,"73.14,77.40"
2024-05-28_13-08-27.990359,"83.46,91.38"
2024-05-28_13-08-28.019138,"75.69,81.90"
2024-05-28_13-08-28.051960,"91.05,79.20"
2024-05-28_13-08-28.084788,"102.85,80.93"
2024-05-28_13-08-28.117552,"87.92,89.70"
2024-05-28_13-08-28.153349,"98.52,55.11"
2024-05-28_13-08-28.183794,"83.44,53.14"
2024-05-28_13-08-28.217140,"72.25,54.63"
2024-05-28_13-08-28.244460,"77.50,58.55"
2024-05-28_13-08-28.277223,"78.06,85.09"
2024-05-28_13-08-28.310036,"76.07,86.86"
2024-05-28_13-08-28.342845,"68.66,81.41"
2024-05-28_13-08-28.375596,"81.25,83.82"
2024-05-28_13-08-28.408444,"101.82,95.34"
2024-05-28_13-08-28.441075,"84.65,75.63"
2024-05-28_13-08-28.473734,"94.76,85.85"
2024-05-28_13-08-28.502579,"100.29,56.99"
2024-05-28_13-08-28.535335,"84.70,47.23"
2024-05-28_13-08-28.568075,"69.69,60.03"
2024-05-28_13-08-28.600841,"69.19,58.72"
2024-05-28_13-08-28.633679,"68.31,55.44"
2024-05-28_13-08-28.666318,"84.43,84.10"
2024-05-28_13-08-28.699064,"81.55,77.17"
2024-05-28_13-08-28.727917,"102.93,89.59"
2024-05-28_13-08-28.760732,"91.03,90.12"
2024-05-28_13-08-28.793394,"101.61,78.47"
2024-05-28_13-08-28.826202,"80.57,84.69"
2024-05-28_13-08-28.859047,"103.65,70.06"
2024-05-28_13-08-28.891671,"85.03,53.64"
2024-05-28_13-08-28.924368,"59.95,56.11"
2024-05-28_13-08-28.953182,"80.32,54.99"
2024-05-28_13-08-28.985989,"70.07,97.54"
2024-05-28_13-08-29.018744,"79.99,80.99"
2024-05-28_13-08-29.051536,"88.88,83.10"
2024-05-28_13-08-29.084230,"88.45,79.60"
2024-05-28_13-08-29.116951,"94.47,87.41"
2024-05-28_13-08-29.149711,"101.75,86.04"
2024-05-28_13-08-29.178478,"74.66,73.41"
2024-05-28_13-08-29.211224,"107.67,69.03"
2024-05-28_13-08-29.243994,"78.86,56.90"
2024-05-28_13-08-29.276761,"66.07,49.74"
2024-05-28_13-08-29.309605,"75.66,60.10"
2024-05-28_13-08-29.342252,"69.25,62.74"
2024-05-28_13-08-29.375117,"79.11,85.77"
2024-05-28_13-08-29.403861,"83.38,83.81"
2024-05-28_13-08-29.436555,"81.95,85.87"
2024-05-28_13-08-29.469372,"99.15,88.36"
2024-05-28_13-08-29.502090,"92.44,74.51"
2024-05-28_13-08-29.534888,"88.47,86.04"
2024-05-28_13-08-29.567608,"107.78,57.59"
2024-05-28_13-08-29.600302,"70.99,56.01"
2024-05-28_13-08-29.629249,"67.42,55.44"
2024-05-28_13-08-29.661909,"84.81,56.52"
2024-05-28_13-08-29.694624,"68.86,79.29"
2024-05-28_13-08-29.727392,"86.44,89.62"
2024-05-28_13-08-29.760150,"78.38,82.20"
2024-05-28_13-08-29.792875,"92.46,78.49"
2024-05-28_13-08-29.825666,"92.60,85.48"
2024-05-28_13-08-29.854433,"104.25,90.93"
2024-05-28_13-08-29.887232,"109.09,70.64"
2024-05-28_13-08-29.919997,"91.57,55.25"
2024-05-28_13-08-29.952838,"82.22,53.72"
2024-05-28_13-08-29.985551,"62.22,58.35"
2024-05-28_13-08-30.018203,"86.57,47.45"
2024-05-28_13-08-30.050894,"60.99,96.67"
2024-05-28_13-08-30.079675,"83.21,79.74"
2024-05-28_13-08-30.112472,"78.36,82.85"
2024-05-28_13-08-30.145209,"97.05,80.00"
2024-05-28_13-08-30.178087,"91.41,85.27"
2024-05-28_13-08-30.210785,"100.20,83.53"
2024-05-28_13-08-30.243517,"87.29,75.48"
2024-05-28_13-08-30.276223,"96.23,52.76"
2024-05-28_13-08-30.304998,"74.57,59.07"
2024-05-28_13-08-30.337758,"62.17,57.91"
2024-05-28_13-08-30.370538,"73.33,83.99"
2024-05-28_13-08-30.403481,"67.53,75.15"
2024-05-28_13-08-30.436112,"92.98,86.44"
2024-05-28_13-08-30.468817,"88.29,90.67"
2024-05-28_13-08-30.501547,"87.84,86.30"
2024-05-28_13-08-30.530292,"98.98,83.73"
2024-05-28_13-08-30.563086,"97.10,77.86"
2024-05-28_13-08-30.595976,"106.16,75.47"
2024-05-28_13-08-30.628612,"95.22,57.52"
2024-05-28_13-08-30.661384,"57.94,56.96"
2024-05-28_13-08-30.694164,"66.54,55.40"
2024-05-28_13-08-30.726869,"80.59,57.74"
2024-05-28_13-08-30.755738,"73.31,76.85"
2024-05-28_13-08-30.788432,"78.39,93.71"
2024-05-28_13-08-30.821157,"85.36,80.82"
2024-05-28_13-08-30.854201,"93.88,78.40"
2024-05-28_13-08-30.888370,"100.92,82.47"
2024-05-28_13-08-30.920536,"84.94,76.52"
2024-05-28_13-08-30.952400,"82.29,57.06"
2024-05-28_13-08-30.981336,"86.64,53.12"
2024-05-28_13-08-31.013736,"74.79,54.88"
2024-05-28_13-08-31.046536,"68.73,58.63"
2024-05-28_13-08-31.079307,"82.34,58.77"
2024-05-28_13-08-31.112529,"66.35,73.83"
2024-05-28_13-08-31.144845,"78.90,80.90"
2024-05-28_13-08-31.177539,"85.08,85.10"
2024-05-28_13-08-31.206390,"98.82,97.59"
2024-05-28_13-08-31.239028,"88.22,81.66"
2024-05-28_13-08-31.271811,"95.70,92.09"
2024-05-28_13-08-31.304643,"100.51,71.22"
2024-05-28_13-08-31.337419,"96.86,47.14"
2024-05-28_13-08-31.370168,"77.47,58.92"
2024-05-28_13-08-31.402790,"71.85,57.42"
2024-05-28_13-08-31.431591,"72.98,77.26"
2024-05-28_13-08-31.464712,"75.36,88.46"
2024-05-28_13-08-31.497134,"88.45,78.49"
2024-05-28_13-08-31.529911,"83.19,93.42"
2024-05-28_13-08-31.562647,"85.78,94.85"
2024-05-28_13-08-31.595428,"95.57,81.05"
2024-05-28_13-08-31.628207,"103.58,76.91"
2024-05-28_13-08-31.656859,"98.99,91.14"
2024-05-28_13-08-31.689688,"102.77,53.22"
2024-05-28_13-08-31.722438,"70.52,54.41"
2024-05-28_13-08-31.755244,"66.53,53.45"
2024-05-28_13-08-31.788015,"81.41,57.56"
2024-05-28_13-08-31.820746,"70.36,87.93"
2024-05-28_13-08-31.853416,"83.10,84.91"
2024-05-28_13-08-31.882308,"87.27,80.38"
2024-05-28_13-08-31.914934,"90.20,78.66"
2024-05-28_13-08-31.947761,"107.00,91.40"
2024-05-28_13-08-31.981541,"92.21,81.24"
2024-05-28_13-08-32.013916,"84.44,55.97"
2024-05-28_13-08-32.046076,"99.57,57.48"
2024-05-28_13-08-32.078776,"70.23,49.33"
2024-05-28_13-08-32.107463,"66.41,60.62"
2024-05-28_13-08-32.140288,"76.07,87.15"
2024-05-28_13-08-32.173130,"67.22,89.70"
2024-05-28_13-08-32.205828,"87.46,85.75"
2024-05-28_13-08-32.238627,"69.20,77.60"
2024-05-28_13-08-32.271311,"98.94,95.18"
2024-05-28_13-08-32.304027,"96.18,77.81"
2024-05-28_13-08-32.336774,"84.48,80.72"
2024-05-28_13-08-32.365578,"99.00,81.56"
2024-05-28_13-08-32.398493,"88.93,55.03"
2024-05-28_13-08-32.431155,"72.77,54.80"
2024-05-28_13-08-32.464331,"76.61,55.70"
2024-05-28_13-08-32.496696,"75.59,54.40"
2024-05-28_13-08-32.529354,"69.76,95.43"
2024-05-28_13-08-32.562680,"71.70,82.99"
2024-05-28_13-08-32.590913,"90.33,81.15"
2024-05-28_13-08-32.623665,"87.49,81.37"
2024-05-28_13-08-32.656439,"97.14,86.32"
2024-05-28_13-08-32.689241,"103.49,86.01"
2024-05-28_13-08-32.722045,"95.01,54.27"
2024-05-28_13-08-32.754656,"95.93,53.61"
2024-05-28_13-08-32.787413,"65.99,58.17"
2024-05-28_13-08-32.816226,"78.10,49.36"
2024-05-28_13-08-32.849085,"67.62,63.43"
2024-05-28_13-08-32.881832,"70.95,82.55"
2024-05-28_13-08-32.914492,"79.08,88.23"
2024-05-28_13-08-32.947269,"86.49,95.28"
2024-05-28_13-08-32.979968,"86.10,89.22"
2024-05-28_13-08-33.013291,"102.36,85.03"
2024-05-28_13-08-33.041537,"79.00,78.74"
2024-05-28_13-08-33.074300,"102.68,69.00"
2024-05-28_13-08-33.107062,"97.30,58.01"
2024-05-28_13-08-33.139837,"65.15,56.10"
2024-05-28_13-08-33.172620,"67.33,53.77"
2024-05-28_13-08-33.205314,"79.81,57.49"
2024-05-28_13-08-33.238022,"77.55,81.04"
2024-05-28_13-08-33.266788,"79.94,92.69"
2024-05-28_13-08-33.299582,"83.05,81.95"
2024-05-28_13-08-33.332382,"89.41,90.31"
2024-05-28_13-08-33.365108,"93.95,81.93"
2024-05-28_13-08-33.397943,"97.65,89.29"
2024-05-28_13-08-33.430652,"107.56,69.18"
2024-05-28_13-08-33.463509,"90.19,55.68"
2024-05-28_13-08-33.492131,"77.26,54.34"
2024-05-28_13-08-33.525051,"61.78,58.75"
2024-05-28_13-08-33.557691,"82.72,77.72"
2024-05-28_13-08-33.590473,"66.02,92.48"
2024-05-28_13-08-33.623203,"80.19,82.02"
2024-05-28_13-08-33.655966,"81.57,87.28"
2024-05-28_13-08-33.688754,"87.07,96.78"
2024-05-28_13-08-33.717518,"81.71,85.36"
2024-05-28_13-08-33.750200,"97.22,95.52"
2024-05-28_13-08-33.782974,"90.26,51.66"
2024-05-28_13-08-33.815711,"95.53,52.76"
2024-05-28_13-08-33.848484,"76.87,59.01"
2024-05-28_13-08-33.881258,"61.88,57.65"
2024-05-28_13-08-33.914309,"73.98,83.14"
2024-05-28_13-08-33.942737,"67.55,82.58"
2024-05-28_13-08-33.975505,"95.43,85.30"
2024-05-28_13-08-34.008253,"88.09,90.58"
2024-05-28_13-08-34.041076,"87.77,85.57"
2024-05-28_13-08-34.073899,"99.91,78.55"
2024-05-28_13-08-34.106728,"98.77,79.38"
2024-05-28_13-08-34.139251,"108.40,62.05"
2024-05-28_13-08-34.168099,"106.04,57.46"
2024-05-28_13-08-34.201001,"65.67,56.41"
2024-05-28_13-08-34.233668,"73.92,53.24"
2024-05-28_13-08-34.266379,"72.81,58.74"
2024-05-28_13-08-34.299162,"76.54,51.69"
2024-05-28_13-08-34.331855,"76.04,92.60"
2024-05-28_13-08-34.364619,"88.34,81.22"
2024-05-28_13-08-34.393313,"92.45,80.16"
2024-05-28_13-08-34.426093,"99.23,82.65"
2024-05-28_13-08-34.458922,"101.44,81.40"
2024-05-28_13-08-34.491695,"104.45,87.74"
2024-05-28_13-08-34.524504,"108.33,53.43"
2024-05-28_13-08-34.557204,"83.29,54.05"
2024-05-28_13-08-34.589875,"65.60,60.36"
2024-05-28_13-08-34.618589,"74.65,58.89"
2024-05-28_13-08-34.651388,"68.91,55.23"
2024-05-28_13-08-34.684180,"70.24,80.20"
2024-05-28_13-08-34.716921,"88.06,83.34"
2024-05-28_13-08-34.749700,"90.69,88.69"
2024-05-28_13-08-34.782498,"86.99,83.24"
2024-05-28_13-08-34.816742,"100.11,78.67"
2024-05-28_13-08-34.843936,"89.53,79.25"
2024-05-28_13-08-34.876722,"97.61,76.02"
2024-05-28_13-08-34.909503,"98.53,56.87"
2024-05-28_13-08-34.942304,"59.90,56.51"
2024-05-28_13-08-34.975043,"71.17,52.97"
2024-05-28_13-08-35.007814,"82.75,70.22"
2024-05-28_13-08-35.040513,"71.92,82.33"
2024-05-28_13-08-35.069237,"85.87,90.69"
2024-05-28_13-08-35.102013,"76.43,81.61"
2024-05-28_13-08-35.134788,"92.67,78.26"
2024-05-28_13-08-35.167564,"101.73,86.27"
2024-05-28_13-08-35.200366,"83.95,82.77"
2024-05-28_13-08-35.233163,"106.37,80.90"
2024-05-28_13-08-35.265816,"95.48,53.20"
2024-05-28_13-08-35.298521,"74.81,53.42"
2024-05-28_13-08-35.327352,"59.91,61.13"
2024-05-28_13-08-35.360095,"85.05,59.12"
2024-05-28_13-08-35.392925,"62.82,92.48"
2024-05-28_13-08-35.425675,"79.02,80.04"
2024-05-28_13-08-35.458445,"89.46,83.78"
2024-05-28_13-08-35.491139,"99.80,89.09"
2024-05-28_13-08-35.524242,"88.04,84.44"
2024-05-28_13-08-35.552717,"88.91,85.70"
2024-05-28_13-08-35.585423,"96.97,80.22"
2024-05-28_13-08-35.618144,"95.90,65.46"
2024-05-28_13-08-35.650987,"88.59,57.20"
2024-05-28_13-08-35.683745,"54.86,58.22"
2024-05-28_13-08-35.716420,"80.23,54.15"
2024-05-28_13-08-35.749134,"75.37,88.95"
2024-05-28_13-08-35.777944,"83.22,75.81"
2024-05-28_13-08-35.810720,"88.83,90.64"
2024-05-28_13-08-35.843527,"89.46,79.85"
2024-05-28_13-08-35.876299,"93.68,88.67"
2024-05-28_13-08-35.908985,"93.88,80.48"
2024-05-28_13-08-35.941895,"90.40,90.80"
2024-05-28_13-08-35.974444,"108.67,69.49"
2024-05-28_13-08-36.003227,"91.53,52.52"
2024-05-28_13-08-36.036043,"66.80,54.78"
2024-05-28_13-08-36.068854,"74.07,60.88"
2024-05-28_13-08-36.101575,"79.91,86.68"
2024-05-28_13-08-36.134325,"69.47,77.22"
2024-05-28_13-08-36.167049,"85.25,79.41"
2024-05-28_13-08-36.199749,"94.55,80.55"
2024-05-28_13-08-36.228543,"92.54,85.31"
2024-05-28_13-08-36.261306,"88.97,83.68"
2024-05-28_13-08-36.294115,"97.73,78.01"
2024-05-28_13-08-36.326873,"85.87,77.61"
2024-05-28_13-08-36.359649,"100.44,46.80"
2024-05-28_13-08-36.392358,"78.33,58.62"
2024-05-28_13-08-36.425083,"54.67,58.09"
2024-05-28_13-08-36.453843,"77.31,54.63"
2024-05-28_13-08-36.486803,"74.81,87.20"
2024-05-28_13-08-36.519479,"79.40,80.74"
2024-05-28_13-08-36.552201,"86.10,96.09"
2024-05-28_13-08-36.584999,"85.98,77.80"
2024-05-28_13-08-36.617666,"95.06,86.47"
2024-05-28_13-08-36.650385,"97.16,76.13"
2024-05-28_13-08-36.679141,"79.72,81.12"
2024-05-28_13-08-36.711979,"104.77,69.37"
2024-05-28_13-08-36.744731,"85.25,52.98"
2024-05-28_13-08-36.777483,"67.16,54.05"
2024-05-28_13-08-36.810250,"72.45,60.60"
2024-05-28_13-08-36.843055,"78.68,84.59"
2024-05-28_13-08-36.875706,"74.46,87.64"
2024-05-28_13-08-36.904488,"72.34,80.05"
2024-05-28_13-08-36.937257,"93.06,81.00"
2024-05-28_13-08-36.970021,"102.54,93.40"
2024-05-28_13-08-37.002864,"85.78,77.92"
2024-05-28_13-08-37.035610,"105.45,80.52"
2024-05-28_13-08-37.068321,"97.46,57.44"
2024-05-28_13-08-37.101060,"97.57,46.52"
2024-05-28_13-08-37.129784,"75.27,58.72"
2024-05-28_13-08-37.162539,"70.79,58.71"
2024-05-28_13-08-37.195332,"72.18,75.64"
2024-05-28_13-08-37.228127,"76.29,88.06"
2024-05-28_13-08-37.260847,"77.34,78.04"
2024-05-28_13-08-37.293636,"98.47,95.44"
2024-05-28_13-08-37.326328,"90.15,80.72"
2024-05-28_13-08-37.355100,"93.81,80.26"
2024-05-28_13-08-37.387883,"109.08,72.39"
2024-05-28_13-08-37.420626,"95.95,53.92"
2024-05-28_13-08-37.453429,"104.23,53.83"
2024-05-28_13-08-37.486681,"73.07,53.89"
2024-05-28_13-08-37.518971,"65.93,53.96"
2024-05-28_13-08-37.551664,"70.63,56.62"
2024-05-28_13-08-37.584349,"69.08,86.08"
2024-05-28_13-08-37.613206,"84.76,84.09"
2024-05-28_13-08-37.645944,"73.84,78.09"
2024-05-28_13-08-37.678753,"89.96,83.11"
2024-05-28_13-08-37.711480,"102.59,82.87"
2024-05-28_13-08-37.747534,"81.54,82.13"
2024-05-28_13-08-37.778771,"90.91,69.76"
2024-05-28_13-08-37.809869,"79.67,59.02"
2024-05-28_13-08-37.838782,"75.55,48.44"
2024-05-28_13-08-37.871340,"87.83,59.30"
2024-05-28_13-08-37.904388,"74.66,57.32"
2024-05-28_13-08-37.936876,"75.33,77.23"
2024-05-28_13-08-37.969576,"74.47,72.27"
2024-05-28_13-08-38.002347,"86.24,78.09"
2024-05-28_13-08-38.034964,"79.55,93.92"
2024-05-28_13-08-38.063774,"87.37,87.59"
2024-05-28_13-08-38.096607,"85.64,83.13"
2024-05-28_13-08-38.129378,"103.37,77.67"
2024-05-28_13-08-38.162129,"81.39,87.66"
2024-05-28_13-08-38.194964,"107.67,69.90"
2024-05-28_13-08-38.227588,"85.72,52.80"
2024-05-28_13-08-38.260295,"65.42,55.54"
2024-05-28_13-08-38.289125,"59.37,61.17"
2024-05-28_13-08-38.321912,"81.78,76.52"
2024-05-28_13-08-38.354669,"64.14,75.53"
2024-05-28_13-08-38.387459,"81.05,80.01"
2024-05-28_13-08-38.420216,"92.20,82.69"
2024-05-28_13-08-38.452893,"99.94,88.97"
2024-05-28_13-08-38.485628,"88.14,89.03"
2024-05-28_13-08-38.514458,"104.43,78.06"
2024-05-28_13-08-38.547206,"96.25,74.50"
2024-05-28_13-08-38.579929,"109.20,65.60"
2024-05-28_13-08-38.612716,"96.60,57.10"
2024-05-28_13-08-38.645508,"56.93,57.59"
2024-05-28_13-08-38.678199,"67.86,55.17"
2024-05-28_13-08-38.710919,"80.76,72.30"
2024-05-28_13-08-38.739989,"72.62,81.16"
2024-05-28_13-08-38.772588,"74.52,95.36"
2024-05-28_13-08-38.805331,"72.30,81.44"
2024-05-28_13-08-38.838089,"87.98,91.49"
2024-05-28_13-08-38.870924,"99.49,82.86"
2024-05-28_13-08-38.903483,"95.80,86.69"
2024-05-28_13-08-38.936211,"84.96,79.37"
2024-05-28_13-08-38.964984,"99.17,52.14"
2024-05-28_13-08-38.997851,"81.13,52.39"
2024-05-28_13-08-39.030576,"63.51,60.56"
2024-05-28_13-08-39.063344,"75.40,58.11"
2024-05-28_13-08-39.096126,"69.14,57.30"
2024-05-28_13-08-39.128893,"69.72,81.48"
2024-05-28_13-08-39.161599,"80.41,87.26"
2024-05-28_13-08-39.190340,"101.74,90.17"
2024-05-28_13-08-39.223315,"87.72,85.71"
2024-05-28_13-08-39.255940,"99.39,80.78"
2024-05-28_13-08-39.288668,"84.03,75.65"
2024-05-28_13-08-39.321415,"86.93,85.62"
2024-05-28_13-08-39.354212,"102.61,57.08"
2024-05-28_13-08-39.386921,"66.75,55.85"
2024-05-28_13-08-39.415644,"69.25,55.17"
2024-05-28_13-08-39.448448,"71.87,59.65"
2024-05-28_13-08-39.481185,"77.63,54.58"
2024-05-28_13-08-39.513954,"74.33,92.92"
2024-05-28_13-08-39.546742,"85.09,81.92"
2024-05-28_13-08-39.579455,"88.27,83.06"
2024-05-28_13-08-39.612162,"98.03,87.65"
2024-05-28_13-08-39.640926,"85.22,81.73"
2024-05-28_13-08-39.673801,"79.24,84.06"
2024-05-28_13-08-39.706486,"104.11,79.29"
2024-05-28_13-08-39.739237,"93.42,52.84"
2024-05-28_13-08-39.772106,"71.26,60.22"
2024-05-28_13-08-39.804771,"61.82,58.95"
2024-05-28_13-08-39.837428,"75.95,54.98"
2024-05-28_13-08-39.866234,"70.32,63.72"
2024-05-28_13-08-39.899022,"87.94,86.19"
2024-05-28_13-08-39.931950,"72.86,91.45"
2024-05-28_13-08-39.964636,"84.70,90.07"
2024-05-28_13-08-39.997325,"94.85,83.26"
2024-05-28_13-08-40.030058,"98.75,77.15"
2024-05-28_13-08-40.062762,"102.76,79.36"
2024-05-28_13-08-40.091650,"108.53,55.28"
2024-05-28_13-08-40.124338,"82.51,55.63"
2024-05-28_13-08-40.157059,"73.57,55.32"
2024-05-28_13-08-40.189854,"59.28,59.61"
2024-05-28_13-08-40.222664,"84.36,49.83"
2024-05-28_13-08-40.255379,"65.10,80.44"
2024-05-28_13-08-40.288099,"85.55,79.49"
2024-05-28_13-08-40.316845,"83.91,81.78"
2024-05-28_13-08-40.349696,"95.34,92.76"
2024-05-28_13-08-40.382367,"90.41,86.86"
2024-05-28_13-08-40.415166,"95.26,83.06"
2024-05-28_13-08-40.447948,"82.32,81.57"
2024-05-28_13-08-40.480779,"103.01,69.09"
2024-05-28_13-08-40.513428,"97.23,58.19"
2024-05-28_13-08-40.542198,"63.91,56.74"
2024-05-28_13-08-40.574967,"67.90,55.22"
2024-05-28_13-08-40.607738,"81.38,57.73"
2024-05-28_13-08-40.640530,"71.20,78.35"
2024-05-28_13-08-40.673225,"82.64,91.82"
2024-05-28_13-08-40.706012,"76.48,83.07"
2024-05-28_13-08-40.738691,"93.95,79.44"
2024-05-28_13-08-40.767428,"90.46,89.65"
2024-05-28_13-08-40.800246,"100.33,83.16"
2024-05-28_13-08-40.832992,"94.96,87.73"
2024-05-28_13-08-40.865810,"93.98,53.86"
2024-05-28_13-08-40.898573,"97.88,53.32"
2024-05-28_13-08-40.931341,"65.94,58.75"
2024-05-28_13-08-40.964031,"79.46,50.20"
2024-05-28_13-08-40.992980,"73.21,77.74"
2024-05-28_13-08-41.025621,"67.87,82.54"
2024-05-28_13-08-41.058326,"83.30,85.97"
2024-05-28_13-08-41.091087,"96.06,84.19"
2024-05-28_13-08-41.123862,"85.76,75.22"
2024-05-28_13-08-41.156694,"101.89,91.26"
2024-05-28_13-08-41.189335,"99.76,74.84"
2024-05-28_13-08-41.218071,"85.93,81.53"
2024-05-28_13-08-41.250849,"98.01,69.60"
2024-05-28_13-08-41.283618,"92.44,54.85"
2024-05-28_13-08-41.316457,"74.41,54.73"
2024-05-28_13-08-41.349253,"59.83,56.87"
2024-05-28_13-08-41.381956,"79.67,54.04"
2024-05-28_13-08-41.414611,"68.85,96.68"
2024-05-28_13-08-41.447337,"82.67,80.47"
2024-05-28_13-08-41.476119,"81.61,81.68"
2024-05-28_13-08-41.509087,"87.81,79.21"
2024-05-28_13-08-41.541680,"87.59,88.65"
2024-05-28_13-08-41.574503,"110.41,85.39"
2024-05-28_13-08-41.607262,"84.78,83.73"
2024-05-28_13-08-41.639941,"110.21,69.38"
2024-05-28_13-08-41.672661,"97.54,56.44"
2024-05-28_13-08-41.701454,"75.10,47.91"
2024-05-28_13-08-41.734272,"65.62,61.69"
2024-05-28_13-08-41.767005,"79.65,59.73"
2024-05-28_13-08-41.799878,"63.29,92.60"
2024-05-28_13-08-41.838073,"79.79,88.85"
2024-05-28_13-08-41.865524,"81.14,83.93"
2024-05-28_13-08-41.905084,"83.45,98.94"
2024-05-28_13-08-41.935458,"89.05,81.93"
2024-05-28_13-08-41.962130,"89.88,86.85"
2024-05-28_13-08-41.992646,"91.55,73.76"
2024-05-28_13-08-42.025188,"96.99,55.19"
2024-05-28_13-08-42.057900,"93.69,54.62"
2024-05-28_13-08-42.090585,"65.30,54.42"
2024-05-28_13-08-42.123291,"64.99,54.83"
2024-05-28_13-08-42.152082,"82.50,73.64"
2024-05-28_13-08-42.184836,"71.08,75.61"
2024-05-28_13-08-42.217674,"76.26,86.07"
2024-05-28_13-08-42.250417,"81.43,82.50"
2024-05-28_13-08-42.283135,"87.12,81.59"
2024-05-28_13-08-42.315884,"93.74,91.33"
2024-05-28_13-08-42.348582,"81.33,80.47"
2024-05-28_13-08-42.377648,"80.12,81.10"
2024-05-28_13-08-42.410192,"100.94,82.31"
2024-05-28_13-08-42.442973,"100.17,46.97"
2024-05-28_13-08-42.475727,"79.57,58.62"
2024-05-28_13-08-42.508637,"54.67,58.43"
2024-05-28_13-08-42.541197,"77.35,54.03"
2024-05-28_13-08-42.573899,"73.47,71.16"
2024-05-28_13-08-42.602677,"82.66,78.39"
2024-05-28_13-08-42.635453,"78.80,90.21"
2024-05-28_13-08-42.668266,"88.93,80.16"
2024-05-28_13-08-42.701155,"93.59,88.60"
2024-05-28_13-08-42.733785,"104.84,79.54"
2024-05-28_13-08-42.766579,"84.94,84.49"
2024-05-28_13-08-42.799261,"96.95,79.89"
2024-05-28_13-08-42.828040,"103.18,53.11"
2024-05-28_13-08-42.860788,"76.91,53.99"
2024-05-28_13-08-42.893554,"61.50,61.27"
2024-05-28_13-08-42.926574,"74.17,58.96"
2024-05-28_13-08-42.959166,"68.42,55.85"
2024-05-28_13-08-42.991798,"66.93,82.39"
2024-05-28_13-08-43.024503,"99.06,82.98"
2024-05-28_13-08-43.053315,"90.50,90.06"
2024-05-28_13-08-43.086144,"86.61,88.76"
2024-05-28_13-08-43.118887,"96.79,82.41"
2024-05-28_13-08-43.151709,"92.63,76.62"
2024-05-28_13-08-43.184427,"103.88,83.10"
2024-05-28_13-08-43.217151,"109.68,71.43"
2024-05-28_13-08-43.249814,"88.66,55.10"
2024-05-28_13-08-43.278593,"76.53,54.01"
2024-05-28_13-08-43.311390,"59.70,59.54"
2024-05-28_13-08-43.344190,"87.62,49.65"
2024-05-28_13-08-43.376892,"62.76,91.58"
2024-05-28_13-08-43.409679,"75.10,80.39"
2024-05-28_13-08-43.442416,"89.61,83.15"
2024-05-28_13-08-43.475136,"86.44,82.84"
2024-05-28_13-08-43.503957,"88.44,81.40"
2024-05-28_13-08-43.536760,"101.55,85.79"
2024-05-28_13-08-43.569704,"87.81,76.69"
2024-05-28_13-08-43.602262,"88.81,88.33"
2024-05-28_13-08-43.635015,"106.66,57.38"
2024-05-28_13-08-43.667709,"72.82,55.07"
2024-05-28_13-08-43.700444,"67.81,54.96"
2024-05-28_13-08-43.729240,"72.47,56.47"
2024-05-28_13-08-43.762040,"75.61,74.25"
2024-05-28_13-08-43.794787,"74.77,93.24"
2024-05-28_13-08-43.827527,"86.58,81.53"
2024-05-28_13-08-43.860355,"93.63,80.59"
2024-05-28_13-08-43.893076,"88.09,88.48"
2024-05-28_13-08-43.925812,"93.66,86.20"
2024-05-28_13-08-43.954605,"94.72,84.89"
2024-05-28_13-08-43.987286,"87.71,56.68"
2024-05-28_13-08-44.020034,"96.76,53.79"
2024-05-28_13-08-44.052847,"88.33,56.38"
2024-05-28_13-08-44.085637,"65.97,49.54"
2024-05-28_13-08-44.118370,"65.35,60.24"
2024-05-28_13-08-44.151112,"78.22,58.42"
2024-05-28_13-08-44.179862,"69.72,76.09"
