timestamp,EMG
2024-05-28_13-09-41.773691,
2024-05-28_13-09-41.774190,"96.78,77.63"
2024-05-28_13-09-41.774467,"88.04,58.52"
2024-05-28_13-09-41.774658,"55.06,59.75"
2024-05-28_13-09-41.774828,"77.10,58.24"
2024-05-28_13-09-43.429195,"82.44,90.22"
2024-05-28_13-09-43.461458,"79.33,77.66"
2024-05-28_13-09-43.494246,"81.61,60.95"
2024-05-28_13-09-43.526953,"81.01,58.11"
2024-05-28_13-09-43.564307,"77.56,58.35"
2024-05-28_13-09-43.592540,"77.01,61.31"
2024-05-28_13-09-43.625163,"83.80,62.58"
2024-05-28_13-09-43.653922,"75.48,99.02"
2024-05-28_13-09-43.686722,"77.52,84.26"
2024-05-28_13-09-43.719474,"92.41,82.39"
2024-05-28_13-09-43.752472,"92.70,91.55"
2024-05-28_13-09-43.785004,"81.52,78.43"
2024-05-28_13-09-43.817872,"73.70,58.04"
2024-05-28_13-09-43.850428,"80.60,54.50"
2024-05-28_13-09-43.879304,"67.26,56.31"
2024-05-28_13-09-43.911998,"72.41,76.97"
2024-05-28_13-09-43.944755,"71.90,94.08"
2024-05-28_13-09-43.977492,"85.25,84.95"
2024-05-28_13-09-44.010285,"73.91,82.04"
2024-05-28_13-09-44.042954,"91.13,80.53"
2024-05-28_13-09-44.075683,"104.25,92.61"
2024-05-28_13-09-44.104447,"86.04,76.71"
2024-05-28_13-09-44.137233,"106.29,68.83"
2024-05-28_13-09-44.170081,"91.10,56.95"
2024-05-28_13-09-44.202744,"67.76,50.09"
2024-05-28_13-09-44.235572,"74.86,86.72"
2024-05-28_13-09-44.268251,"67.89,84.55"
2024-05-28_13-09-44.300937,"89.84,84.59"
2024-05-28_13-09-44.329729,"86.38,84.02"
2024-05-28_13-09-44.362489,"88.57,91.34"
2024-05-28_13-09-44.395271,"105.88,83.65"
2024-05-28_13-09-44.428007,"95.86,67.58"
2024-05-28_13-09-44.460795,"105.42,53.07"
2024-05-28_13-09-44.493523,"82.18,59.48"
2024-05-28_13-09-44.526211,"77.69,57.59"
2024-05-28_13-09-44.554961,"71.37,58.04"
2024-05-28_13-09-44.587744,"72.19,80.43"
2024-05-28_13-09-44.620494,"79.15,83.20"
2024-05-28_13-09-44.653289,"99.23,90.36"
2024-05-28_13-09-44.686054,"86.57,86.98"
2024-05-28_13-09-44.718778,"97.27,80.15"
2024-05-28_13-09-44.751488,"96.76,71.96"
2024-05-28_13-09-44.780233,"98.51,46.45"
2024-05-28_13-09-44.813007,"75.19,60.60"
2024-05-28_13-09-44.845765,"69.46,59.39"
2024-05-28_13-09-44.878608,"68.82,64.45"
2024-05-28_13-09-44.911355,"88.74,85.19"
2024-05-28_13-09-44.944136,"83.03,78.16"
2024-05-28_13-09-44.976841,"99.08,77.32"
2024-05-28_13-09-45.005532,"96.30,76.09"
2024-05-28_13-09-45.038294,"96.34,86.37"
2024-05-28_13-09-45.071145,"110.28,57.56"
2024-05-28_13-09-45.103818,"83.59,55.34"
2024-05-28_13-09-45.136604,"68.93,56.81"
2024-05-28_13-09-45.169333,"72.22,57.74"
2024-05-28_13-09-45.202040,"73.80,100.32"
2024-05-28_13-09-45.230882,"89.18,89.75"
2024-05-28_13-09-45.263607,"89.09,70.48"
2024-05-28_13-09-45.296426,"87.34,91.34"
2024-05-28_13-09-45.329255,"85.51,79.04"
2024-05-28_13-09-45.362049,"91.60,65.08"
2024-05-28_13-09-45.394679,"111.42,58.30"
2024-05-28_13-09-45.427313,"67.30,57.05"
2024-05-28_13-09-45.456088,"67.94,57.04"
2024-05-28_13-09-45.488879,"81.15,58.93"
2024-05-28_13-09-45.521642,"81.12,75.23"
2024-05-28_13-09-45.554353,"73.36,92.96"
2024-05-28_13-09-45.587166,"88.97,80.78"
2024-05-28_13-09-45.619904,"93.26,85.13"
2024-05-28_13-09-45.652598,"99.71,77.32"
2024-05-28_13-09-45.685309,"96.08,82.78"
2024-05-28_13-09-45.714109,"107.99,52.96"
2024-05-28_13-09-45.746871,"73.65,54.54"
2024-05-28_13-09-45.779662,"66.77,54.61"
2024-05-28_13-09-45.812386,"77.81,64.60"
2024-05-28_13-09-45.845205,"82.84,81.79"
2024-05-28_13-09-45.877835,"90.29,83.64"
2024-05-28_13-09-45.910542,"88.33,66.10"
2024-05-28_13-09-45.939362,"93.74,85.10"
2024-05-28_13-09-45.972122,"108.36,86.00"
2024-05-28_13-09-46.004910,"92.63,72.09"
2024-05-28_13-09-46.037857,"102.18,52.88"
2024-05-28_13-09-46.070502,"69.14,59.19"
2024-05-28_13-09-46.103262,"78.36,48.84"
2024-05-28_13-09-46.135826,"68.29,71.68"
2024-05-28_13-09-46.164681,"77.98,81.30"
2024-05-28_13-09-46.197408,"80.98,83.19"
2024-05-28_13-09-46.230207,"97.00,82.12"
2024-05-28_13-09-46.262925,"93.50,83.38"
2024-05-28_13-09-46.295750,"100.62,86.92"
2024-05-28_13-09-46.328427,"101.34,70.15"
2024-05-28_13-09-46.361133,"92.68,52.77"
2024-05-28_13-09-46.389913,"65.15,60.81"
2024-05-28_13-09-46.422666,"73.93,59.09"
2024-05-28_13-09-46.455435,"63.70,79.59"
2024-05-28_13-09-46.488280,"78.02,82.00"
2024-05-28_13-09-46.522597,"87.08,85.37"
2024-05-28_13-09-46.558063,"95.61,78.36"
2024-05-28_13-09-46.586865,"75.57,80.75"
2024-05-28_13-09-46.615588,"97.02,70.76"
2024-05-28_13-09-46.648797,"91.03,58.98"
2024-05-28_13-09-46.680754,"78.76,48.30"
2024-05-28_13-09-46.713507,"72.44,59.62"
2024-05-28_13-09-46.746260,"79.88,60.74"
2024-05-28_13-09-46.778917,"66.38,76.31"
2024-05-28_13-09-46.811633,"82.87,83.73"
2024-05-28_13-09-46.840401,"85.01,77.42"
2024-05-28_13-09-46.873211,"100.02,96.16"
2024-05-28_13-09-46.906218,"92.08,76.20"
2024-05-28_13-09-46.938827,"99.09,68.16"
2024-05-28_13-09-46.971516,"103.78,57.31"
2024-05-28_13-09-47.004224,"73.52,56.64"
2024-05-28_13-09-47.036900,"66.12,57.15"
2024-05-28_13-09-47.065723,"81.04,59.16"
2024-05-28_13-09-47.098475,"83.47,80.28"
2024-05-28_13-09-47.131237,"72.85,91.35"
2024-05-28_13-09-47.164009,"86.86,81.63"
2024-05-28_13-09-47.197235,"95.04,83.40"
2024-05-28_13-09-47.229488,"93.44,78.62"
2024-05-28_13-09-47.262177,"89.45,77.79"
2024-05-28_13-09-47.290958,"110.35,56.75"
2024-05-28_13-09-47.323713,"66.46,56.97"
2024-05-28_13-09-47.356528,"67.36,56.49"
2024-05-28_13-09-47.389268,"80.59,58.96"
2024-05-28_13-09-47.422027,"80.32,72.92"
2024-05-28_13-09-47.454748,"76.87,91.86"
2024-05-28_13-09-47.487432,"88.94,80.55"
2024-05-28_13-09-47.516219,"95.53,82.18"
2024-05-28_13-09-47.548991,"105.33,78.27"
2024-05-28_13-09-47.581812,"99.44,82.97"
2024-05-28_13-09-47.614555,"100.40,53.09"
2024-05-28_13-09-47.647295,"65.99,55.88"
2024-05-28_13-09-47.680031,"67.24,55.95"
2024-05-28_13-09-47.712728,"72.66,103.07"
2024-05-28_13-09-47.741516,"86.64,80.01"
2024-05-28_13-09-47.774274,"92.09,82.30"
2024-05-28_13-09-47.807040,"87.25,77.00"
2024-05-28_13-09-47.839815,"96.63,83.60"
2024-05-28_13-09-47.872588,"112.64,88.83"
2024-05-28_13-09-47.905320,"86.30,55.30"
2024-05-28_13-09-47.938014,"92.42,54.32"
2024-05-28_13-09-47.966764,"61.03,59.20"
2024-05-28_13-09-47.999567,"86.73,51.75"
2024-05-28_13-09-48.032346,"70.09,82.74"
2024-05-28_13-09-48.065344,"70.55,82.07"
2024-05-28_13-09-48.097964,"85.03,86.21"
2024-05-28_13-09-48.130554,"94.15,84.49"
2024-05-28_13-09-48.163257,"91.89,85.47"
2024-05-28_13-09-48.192044,"107.40,81.73"
2024-05-28_13-09-48.224815,"100.58,52.13"
2024-05-28_13-09-48.257583,"79.32,53.93"
2024-05-28_13-09-48.290327,"60.65,61.80"
2024-05-28_13-09-48.323082,"82.82,59.95"
2024-05-28_13-09-48.355863,"73.87,88.51"
2024-05-28_13-09-48.388542,"86.58,81.17"
2024-05-28_13-09-48.417322,"92.10,68.46"
2024-05-28_13-09-48.450050,"102.39,96.81"
2024-05-28_13-09-48.482828,"93.92,73.17"
2024-05-28_13-09-48.515594,"106.46,68.82"
2024-05-28_13-09-48.548355,"96.03,56.81"
2024-05-28_13-09-48.581183,"68.43,50.07"
2024-05-28_13-09-48.613821,"77.42,61.91"
2024-05-28_13-09-48.642689,"70.17,63.55"
2024-05-28_13-09-48.675407,"84.08,86.47"
2024-05-28_13-09-48.708110,"81.30,85.87"
2024-05-28_13-09-48.740885,"87.70,82.83"
2024-05-28_13-09-48.773634,"104.54,84.30"
2024-05-28_13-09-48.806387,"98.88,76.73"
2024-05-28_13-09-48.839190,"94.26,53.28"
2024-05-28_13-09-48.871801,"85.92,59.77"
2024-05-28_13-09-48.900668,"77.18,58.24"
2024-05-28_13-09-48.933388,"73.76,83.09"
2024-05-28_13-09-48.966184,"68.94,82.13"
2024-05-28_13-09-48.998904,"92.76,83.17"
2024-05-28_13-09-49.031726,"101.94,77.99"
2024-05-28_13-09-49.064413,"87.76,86.67"
2024-05-28_13-09-49.097155,"96.62,81.99"
2024-05-28_13-09-49.125875,"98.90,73.53"
2024-05-28_13-09-49.158647,"100.61,46.55"
2024-05-28_13-09-49.191458,"73.59,60.58"
2024-05-28_13-09-49.224186,"70.41,59.29"
2024-05-28_13-09-49.256941,"70.13,55.25"
2024-05-28_13-09-49.289658,"86.51,85.35"
2024-05-28_13-09-49.322349,"82.85,78.05"
2024-05-28_13-09-49.351204,"101.55,89.68"
2024-05-28_13-09-49.383928,"96.40,79.92"
2024-05-28_13-09-49.416688,"96.53,85.52"
2024-05-28_13-09-49.449439,"108.26,58.26"
2024-05-28_13-09-49.482220,"87.60,54.95"
2024-05-28_13-09-49.514915,"71.58,57.11"
2024-05-28_13-09-49.547627,"71.79,58.20"
2024-05-28_13-09-49.576483,"73.72,96.09"
2024-05-28_13-09-49.609166,"88.35,90.72"
2024-05-28_13-09-49.641913,"88.20,70.75"
2024-05-28_13-09-49.674684,"91.64,78.51"
2024-05-28_13-09-49.707509,"89.11,77.52"
2024-05-28_13-09-49.740195,"107.86,76.69"
2024-05-28_13-09-49.772884,"107.97,56.87"
2024-05-28_13-09-49.801673,"67.37,56.82"
2024-05-28_13-09-49.834424,"67.41,56.04"
2024-05-28_13-09-49.867194,"79.91,67.30"
2024-05-28_13-09-49.900014,"84.34,77.88"
2024-05-28_13-09-49.932764,"76.18,91.65"
2024-05-28_13-09-49.965471,"87.85,78.86"
2024-05-28_13-09-49.998264,"95.69,80.54"
2024-05-28_13-09-50.026975,"110.05,71.59"
2024-05-28_13-09-50.059754,"100.96,70.19"
2024-05-28_13-09-50.092538,"93.26,54.81"
2024-05-28_13-09-50.125290,"67.95,54.91"
2024-05-28_13-09-50.158060,"82.18,52.71"
2024-05-28_13-09-50.190711,"71.64,81.56"
2024-05-28_13-09-50.223426,"88.26,79.69"
2024-05-28_13-09-50.252302,"92.66,81.64"
2024-05-28_13-09-50.288272,"88.08,85.21"
2024-05-28_13-09-50.317854,"95.03,87.50"
2024-05-28_13-09-50.350626,"102.74,70.30"
2024-05-28_13-09-50.383312,"92.13,54.82"
2024-05-28_13-09-50.416051,"86.62,54.17"
2024-05-28_13-09-50.448725,"60.09,59.40"
2024-05-28_13-09-50.477454,"85.96,50.38"
2024-05-28_13-09-50.510318,"69.59,81.51"
2024-05-28_13-09-50.542975,"69.35,82.47"
2024-05-28_13-09-50.575796,"88.18,84.93"
2024-05-28_13-09-50.608507,"97.89,78.87"
2024-05-28_13-09-50.641278,"98.53,80.18"
2024-05-28_13-09-50.674005,"111.58,68.37"
2024-05-28_13-09-50.702805,"95.20,52.45"
2024-05-28_13-09-50.735529,"69.31,55.08"
2024-05-28_13-09-50.768314,"74.46,61.80"
2024-05-28_13-09-50.801054,"76.00,63.12"
2024-05-28_13-09-50.833824,"79.75,87.21"
2024-05-28_13-09-50.866592,"74.48,81.93"
2024-05-28_13-09-50.899299,"91.65,80.28"
2024-05-28_13-09-50.928053,"105.99,92.50"
2024-05-28_13-09-50.960789,"87.14,76.20"
2024-05-28_13-09-50.993585,"106.24,69.07"
2024-05-28_13-09-51.026499,"92.17,56.95"
2024-05-28_13-09-51.059129,"66.16,49.09"
2024-05-28_13-09-51.091843,"76.46,61.04"
2024-05-28_13-09-51.124557,"68.46,82.54"
2024-05-28_13-09-51.153304,"91.28,82.46"
2024-05-28_13-09-51.186072,"96.84,70.52"
2024-05-28_13-09-51.218900,"89.10,90.36"
2024-05-28_13-09-51.251608,"97.33,83.90"
2024-05-28_13-09-51.284349,"95.63,68.34"
2024-05-28_13-09-51.317193,"104.68,52.08"
2024-05-28_13-09-51.349809,"76.67,59.74"
2024-05-28_13-09-51.378571,"74.34,59.71"
2024-05-28_13-09-51.411364,"68.13,61.30"
2024-05-28_13-09-51.444159,"80.22,79.60"
2024-05-28_13-09-51.476898,"87.32,84.56"
2024-05-28_13-09-51.509728,"100.20,75.98"
2024-05-28_13-09-51.542499,"89.87,77.89"
2024-05-28_13-09-51.583519,"101.56,76.97"
2024-05-28_13-09-51.612494,"105.06,58.42"
2024-05-28_13-09-51.637488,"85.79,47.98"
2024-05-28_13-09-51.669913,"83.89,59.92"
2024-05-28_13-09-51.702953,"80.29,76.11"
2024-05-28_13-09-51.735036,"73.73,84.01"
2024-05-28_13-09-51.767882,"84.66,89.03"
2024-05-28_13-09-51.800579,"84.91,77.91"
2024-05-28_13-09-51.829142,"99.89,92.09"
2024-05-28_13-09-51.861909,"95.54,77.36"
2024-05-28_13-09-51.894718,"104.13,67.88"
2024-05-28_13-09-51.927457,"100.49,57.34"
2024-05-28_13-09-51.960206,"64.68,57.46"
2024-05-28_13-09-51.992927,"66.21,56.30"
2024-05-28_13-09-52.025636,"75.41,83.94"
2024-05-28_13-09-52.054391,"87.88,88.16"
2024-05-28_13-09-52.087322,"86.33,91.43"
2024-05-28_13-09-52.120217,"80.77,88.11"
2024-05-28_13-09-52.152769,"88.61,83.49"
2024-05-28_13-09-52.185563,"93.69,77.63"
2024-05-28_13-09-52.218194,"104.81,47.46"
2024-05-28_13-09-52.250901,"93.96,58.04"
2024-05-28_13-09-52.279641,"56.25,58.14"
2024-05-28_13-09-52.312475,"80.72,54.16"
2024-05-28_13-09-52.345195,"77.01,71.78"
2024-05-28_13-09-52.377943,"77.41,78.69"
2024-05-28_13-09-52.410724,"99.32,92.39"
2024-05-28_13-09-52.443507,"89.20,78.35"
2024-05-28_13-09-52.476184,"101.64,79.60"
2024-05-28_13-09-52.508882,"112.34,70.99"
2024-05-28_13-09-52.537648,"90.65,54.37"
2024-05-28_13-09-52.570438,"74.34,55.51"
2024-05-28_13-09-52.603207,"74.59,56.81"
2024-05-28_13-09-52.635993,"75.78,56.12"
2024-05-28_13-09-52.668772,"78.96,92.61"
2024-05-28_13-09-52.701455,"88.69,83.21"
2024-05-28_13-09-52.730179,"92.05,79.53"
2024-05-28_13-09-52.762988,"93.84,81.39"
2024-05-28_13-09-52.795712,"103.81,81.47"
2024-05-28_13-09-52.828493,"104.74,73.50"
2024-05-28_13-09-52.861243,"76.23,55.77"
2024-05-28_13-09-52.893997,"69.43,56.04"
2024-05-28_13-09-52.926718,"70.75,73.05"
2024-05-28_13-09-52.959418,"74.35,80.48"
2024-05-28_13-09-52.988205,"77.83,91.13"
2024-05-28_13-09-53.020993,"90.12,80.88"
2024-05-28_13-09-53.053745,"92.79,84.97"
2024-05-28_13-09-53.086513,"102.31,79.08"
2024-05-28_13-09-53.119300,"98.11,82.93"
2024-05-28_13-09-53.151960,"99.99,53.72"
2024-05-28_13-09-53.184698,"65.82,55.96"
2024-05-28_13-09-53.213461,"81.04,55.74"
2024-05-28_13-09-53.246289,"73.51,83.82"
2024-05-28_13-09-53.279038,"82.68,83.28"
2024-05-28_13-09-53.311797,"88.71,83.84"
2024-05-28_13-09-53.344526,"88.71,84.02"
2024-05-28_13-09-53.377273,"103.46,87.96"
2024-05-28_13-09-53.409980,"110.15,68.72"
2024-05-28_13-09-53.438746,"90.55,55.17"
2024-05-28_13-09-53.471479,"81.49,54.85"
2024-05-28_13-09-53.504299,"59.88,60.41"
2024-05-28_13-09-53.537055,"79.42,55.66"
2024-05-28_13-09-53.569799,"75.41,94.75"
2024-05-28_13-09-53.602533,"75.10,82.86"
2024-05-28_13-09-53.635220,"92.95,81.54"
2024-05-28_13-09-53.663997,"102.10,83.28"
2024-05-28_13-09-53.696737,"90.95,84.17"
2024-05-28_13-09-53.729570,"105.97,52.70"
2024-05-28_13-09-53.762303,"89.59,52.57"
2024-05-28_13-09-53.795099,"66.38,55.52"
2024-05-28_13-09-53.827821,"69.55,76.03"
2024-05-28_13-09-53.860528,"72.45,91.61"
2024-05-28_13-09-53.889273,"88.29,84.23"
2024-05-28_13-09-53.922380,"85.23,81.61"
2024-05-28_13-09-53.954871,"88.86,90.07"
2024-05-28_13-09-53.987628,"103.30,84.56"
2024-05-28_13-09-54.020356,"90.11,71.76"
2024-05-28_13-09-54.053070,"106.05,53.31"
2024-05-28_13-09-54.085761,"71.19,58.81"
2024-05-28_13-09-54.114601,"77.69,51.15"
2024-05-28_13-09-54.147304,"66.55,74.08"
2024-05-28_13-09-54.180095,"82.76,80.43"
2024-05-28_13-09-54.212935,"89.83,84.23"
2024-05-28_13-09-54.245611,"96.19,67.73"
2024-05-28_13-09-54.278356,"96.73,81.00"
2024-05-28_13-09-54.311053,"103.63,90.17"
2024-05-28_13-09-54.339845,"96.13,69.64"
2024-05-28_13-09-54.372561,"86.21,54.04"
2024-05-28_13-09-54.405349,"63.41,61.58"
2024-05-28_13-09-54.438234,"84.76,59.41"
2024-05-28_13-09-54.470955,"73.32,74.03"
2024-05-28_13-09-54.503593,"84.62,81.09"
2024-05-28_13-09-54.536354,"92.81,68.90"
2024-05-28_13-09-54.565129,"103.55,96.50"
2024-05-28_13-09-54.597864,"85.36,74.43"
2024-05-28_13-09-54.630622,"107.05,68.93"
2024-05-28_13-09-54.663358,"95.07,56.84"
2024-05-28_13-09-54.696220,"67.52,50.12"
2024-05-28_13-09-54.728894,"76.58,61.15"
2024-05-28_13-09-54.761594,"68.45,83.03"
2024-05-28_13-09-54.790348,"91.15,83.96"
2024-05-28_13-09-54.823199,"97.52,70.95"
2024-05-28_13-09-54.855933,"88.77,88.57"
2024-05-28_13-09-54.888753,"98.51,85.14"
2024-05-28_13-09-54.921461,"76.93,53.59"
2024-05-28_13-09-54.954206,"77.92,56.15"
2024-05-28_13-09-54.986863,"81.30,59.19"
2024-05-28_13-09-55.015710,"75.04,57.90"
2024-05-28_13-09-55.048421,"65.84,97.62"
2024-05-28_13-09-55.081158,"75.50,82.54"
2024-05-28_13-09-55.113921,"78.86,84.63"
2024-05-28_13-09-55.146708,"100.17,76.87"
2024-05-28_13-09-55.179434,"83.02,78.82"
2024-05-28_13-09-55.212147,"107.07,81.62"
2024-05-28_13-09-55.240911,"100.16,57.02"
2024-05-28_13-09-55.275408,"81.92,47.32"
2024-05-28_13-09-55.306873,"76.90,59.49"
2024-05-28_13-09-55.339562,"74.03,65.13"
2024-05-28_13-09-55.372051,"71.98,94.03"
2024-05-28_13-09-55.404717,"89.75,87.37"
2024-05-28_13-09-55.437419,"86.39,74.87"
2024-05-28_13-09-55.466190,"100.91,86.24"
2024-05-28_13-09-55.498947,"94.52,73.34"
2024-05-28_13-09-55.531719,"97.18,69.37"
2024-05-28_13-09-55.564475,"89.76,59.77"
2024-05-28_13-09-55.597254,"62.09,57.93"
2024-05-28_13-09-55.629987,"74.63,82.36"
2024-05-28_13-09-55.662675,"68.36,82.42"
2024-05-28_13-09-55.691512,"89.18,84.69"
2024-05-28_13-09-55.724180,"97.80,80.61"
2024-05-28_13-09-55.756965,"87.57,82.45"
2024-05-28_13-09-55.789805,"97.31,80.82"
2024-05-28_13-09-55.822506,"102.25,73.88"
2024-05-28_13-09-55.855288,"96.05,47.22"
2024-05-28_13-09-55.887953,"71.71,61.12"
2024-05-28_13-09-55.916700,"68.84,59.58"
2024-05-28_13-09-55.949496,"67.50,98.53"
2024-05-28_13-09-55.982201,"89.30,85.77"
2024-05-28_13-09-56.015033,"83.23,77.67"
2024-05-28_13-09-56.047828,"97.94,98.50"
2024-05-28_13-09-56.080561,"88.63,76.94"
2024-05-28_13-09-56.113239,"100.40,80.11"
2024-05-28_13-09-56.145916,"106.97,56.89"
2024-05-28_13-09-56.174745,"74.04,56.41"
2024-05-28_13-09-56.207550,"66.82,55.64"
2024-05-28_13-09-56.240298,"78.12,86.30"
2024-05-28_13-09-56.273064,"82.29,91.96"
2024-05-28_13-09-56.305851,"84.99,93.28"
2024-05-28_13-09-56.338522,"87.54,79.34"
2024-05-28_13-09-56.367254,"97.45,80.20"
2024-05-28_13-09-56.400038,"93.94,74.78"
2024-05-28_13-09-56.432881,"106.22,65.12"
2024-05-28_13-09-56.465589,"89.90,59.54"
2024-05-28_13-09-56.498310,"55.66,59.15"
2024-05-28_13-09-56.531088,"77.70,55.80"
2024-05-28_13-09-56.563786,"76.43,90.51"
2024-05-28_13-09-56.596523,"78.94,79.36"
2024-05-28_13-09-56.625306,"98.12,82.24"
2024-05-28_13-09-56.658091,"90.77,86.96"
2024-05-28_13-09-56.690840,"92.36,81.73"
2024-05-28_13-09-56.723604,"107.31,72.85"
2024-05-28_13-09-56.756358,"96.05,55.06"
2024-05-28_13-09-56.789044,"71.53,56.75"
2024-05-28_13-09-56.821753,"72.75,58.57"
2024-05-28_13-09-56.850569,"76.06,72.34"
2024-05-28_13-09-56.883342,"86.61,91.28"
2024-05-28_13-09-56.916073,"87.23,71.76"
2024-05-28_13-09-56.948868,"92.58,90.37"
2024-05-28_13-09-56.981662,"90.47,77.63"
2024-05-28_13-09-57.014338,"99.39,77.81"
2024-05-28_13-09-57.047080,"114.72,57.02"
2024-05-28_13-09-57.075869,"66.98,57.34"
2024-05-28_13-09-57.108602,"68.69,56.54"
2024-05-28_13-09-57.141394,"79.30,74.08"
2024-05-28_13-09-57.174154,"83.37,81.29"
2024-05-28_13-09-57.206877,"88.31,93.07"
2024-05-28_13-09-57.239635,"86.07,66.78"
2024-05-28_13-09-57.272352,"95.00,80.56"
2024-05-28_13-09-57.301281,"100.93,72.29"
2024-05-28_13-09-57.334160,"93.83,70.58"
2024-05-28_13-09-57.366686,"76.24,57.02"
2024-05-28_13-09-57.399454,"62.95,56.25"
2024-05-28_13-09-57.432214,"80.56,56.47"
2024-05-28_13-09-57.464882,"76.06,80.37"
2024-05-28_13-09-57.497571,"85.87,83.40"
2024-05-28_13-09-57.526433,"90.90,69.57"
2024-05-28_13-09-57.559220,"89.01,80.62"
2024-05-28_13-09-57.591936,"103.35,78.16"
2024-05-28_13-09-57.624668,"106.19,71.05"
2024-05-28_13-09-57.657524,"89.65,55.55"
2024-05-28_13-09-57.690215,"75.87,55.36"
2024-05-28_13-09-57.722877,"73.78,60.03"
2024-05-28_13-09-57.751722,"76.93,62.20"
2024-05-28_13-09-57.784537,"82.55,93.84"
2024-05-28_13-09-57.817239,"74.38,70.76"
2024-05-28_13-09-57.850027,"87.73,91.99"
2024-05-28_13-09-57.882754,"87.45,84.45"
2024-05-28_13-09-57.915436,"92.02,82.20"
2024-05-28_13-09-57.948199,"111.57,53.56"
2024-05-28_13-09-57.976929,"76.10,54.39"
2024-05-28_13-09-58.009692,"65.77,56.63"
2024-05-28_13-09-58.042466,"79.07,59.49"
2024-05-28_13-09-58.076675,"83.14,83.41"
2024-05-28_13-09-58.110379,"80.59,88.16"
2024-05-28_13-09-58.140797,"74.84,93.47"
2024-05-28_13-09-58.173427,"85.49,91.40"
2024-05-28_13-09-58.202258,"94.59,78.40"
2024-05-28_13-09-58.235012,"93.37,55.30"
2024-05-28_13-09-58.267732,"89.39,54.35"
2024-05-28_13-09-58.300470,"60.15,59.29"
2024-05-28_13-09-58.333296,"86.13,50.12"
2024-05-28_13-09-58.366029,"72.20,79.85"
2024-05-28_13-09-58.398702,"85.54,81.47"
2024-05-28_13-09-58.427508,"93.42,69.66"
2024-05-28_13-09-58.460261,"98.20,79.61"
2024-05-28_13-09-58.493019,"87.68,80.20"
2024-05-28_13-09-58.526039,"103.85,69.29"
2024-05-28_13-09-58.558564,"100.08,52.97"
2024-05-28_13-09-58.591244,"68.41,56.11"
2024-05-28_13-09-58.623995,"73.42,61.92"
2024-05-28_13-09-58.652741,"75.78,64.09"
2024-05-28_13-09-58.685547,"82.43,86.22"
2024-05-28_13-09-58.718255,"72.41,70.00"
2024-05-28_13-09-58.751017,"91.77,80.44"
2024-05-28_13-09-58.783824,"108.51,89.79"
2024-05-28_13-09-58.816574,"88.51,70.68"
2024-05-28_13-09-58.849260,"109.29,53.10"
2024-05-28_13-09-58.878007,"72.17,58.63"
2024-05-28_13-09-58.910795,"77.24,51.88"
2024-05-28_13-09-58.943588,"67.51,64.17"
2024-05-28_13-09-58.976320,"80.48,80.73"
2024-05-28_13-09-59.009073,"79.54,83.98"
2024-05-28_13-09-59.041815,"96.42,67.98"
2024-05-28_13-09-59.074518,"86.25,83.85"
2024-05-28_13-09-59.103296,"105.45,79.83"
2024-05-28_13-09-59.136059,"103.81,53.03"
2024-05-28_13-09-59.168820,"82.35,54.66"
2024-05-28_13-09-59.201608,"61.73,61.85"
2024-05-28_13-09-59.234387,"82.87,60.15"
2024-05-28_13-09-59.267102,"72.69,80.57"
2024-05-28_13-09-59.299831,"85.05,81.47"
2024-05-28_13-09-59.329907,"92.01,69.64"
2024-05-28_13-09-59.361405,"103.27,96.74"
2024-05-28_13-09-59.394116,"80.39,83.86"
2024-05-28_13-09-59.426850,"106.54,68.39"
2024-05-28_13-09-59.459676,"100.08,57.13"
2024-05-28_13-09-59.492392,"66.56,50.55"
2024-05-28_13-09-59.525111,"78.38,62.40"
2024-05-28_13-09-59.553830,"70.19,64.23"
2024-05-28_13-09-59.586583,"84.86,85.58"
2024-05-28_13-09-59.619364,"79.54,87.08"
2024-05-28_13-09-59.652169,"86.94,81.08"
2024-05-28_13-09-59.684934,"106.68,83.88"
2024-05-28_13-09-59.718233,"105.09,67.17"
2024-05-28_13-09-59.751337,"82.70,53.86"
2024-05-28_13-09-59.779227,"90.65,59.42"
2024-05-28_13-09-59.812035,"62.63,57.45"
2024-05-28_13-09-59.844727,"73.38,55.84"
2024-05-28_13-09-59.877551,"73.13,84.70"
2024-05-28_13-09-59.910881,"75.22,92.11"
2024-05-28_13-09-59.943008,"100.58,90.20"
2024-05-28_13-09-59.975617,"87.09,84.65"
2024-05-28_13-10-00.004709,"98.54,86.41"
2024-05-28_13-10-00.037207,"92.79,58.97"
2024-05-28_13-10-00.069941,"80.40,48.42"
2024-05-28_13-10-00.102666,"73.68,61.37"
2024-05-28_13-10-00.135460,"68.13,60.78"
2024-05-28_13-10-00.168275,"67.08,98.76"
2024-05-28_13-10-00.200877,"83.04,90.47"
2024-05-28_13-10-00.229629,"81.66,79.88"
2024-05-28_13-10-00.262457,"102.81,91.73"
2024-05-28_13-10-00.295204,"93.35,65.32"
2024-05-28_13-10-00.327932,"98.65,71.40"
2024-05-28_13-10-00.360731,"89.77,65.28"
2024-05-28_13-10-00.393506,"95.08,47.34"
2024-05-28_13-10-00.426196,"90.41,70.57"
2024-05-28_13-10-00.458864,"92.91,75.83"
2024-05-28_13-10-00.487649,"80.02,75.00"
2024-05-28_13-10-00.520555,"72.31,84.57"
2024-05-28_13-10-00.553260,"79.77,66.85"
2024-05-28_13-10-00.586009,"104.55,67.52"
2024-05-28_13-10-00.618755,"101.96,76.13"
2024-05-28_13-10-00.651445,"84.40,46.13"
2024-05-28_13-10-00.684209,"106.81,40.39"
2024-05-28_13-10-00.713042,"101.49,40.02"
2024-05-28_13-10-00.745890,"95.37,47.72"
2024-05-28_13-10-00.778526,"83.52,64.20"
2024-05-28_13-10-00.811322,"72.12,69.13"
2024-05-28_13-10-00.843984,"97.06,87.02"
2024-05-28_13-10-00.876710,"90.34,78.54"
2024-05-28_13-10-00.909411,"103.73,80.88"
2024-05-28_13-10-00.938377,"106.41,58.09"
2024-05-28_13-10-00.971010,"92.05,56.96"
2024-05-28_13-10-01.003803,"73.90,57.82"
2024-05-28_13-10-01.049373,"73.94,58.15"
2024-05-28_13-10-01.069347,"75.47,75.10"
2024-05-28_13-10-01.102057,"64.95,94.35"
2024-05-28_13-10-01.134724,"74.24,92.24"
2024-05-28_13-10-01.163504,"83.32,87.75"
2024-05-28_13-10-01.196265,"93.77,80.36"
2024-05-28_13-10-01.229036,"86.37,48.07"
2024-05-28_13-10-01.261764,"110.74,57.90"
2024-05-28_13-10-01.294509,"66.20,58.84"
2024-05-28_13-10-01.327292,"71.26,58.78"
2024-05-28_13-10-01.360107,"80.01,78.15"
2024-05-28_13-10-01.388819,"75.22,75.04"
2024-05-28_13-10-01.421541,"65.98,105.07"
2024-05-28_13-10-01.454307,"83.51,91.50"
2024-05-28_13-10-11.645661,"99.70,81.33"
2024-05-28_13-10-11.647055,05
2024-05-28_13-10-11.647140,"77.09,79.15"
2024-05-28_13-10-11.647203,"95.39,54.05"
2024-05-28_13-10-11.647299,"92.73,57.27"
2024-05-28_13-10-11.647371,"93.93,48.18"
2024-05-28_13-10-11.647449,"107.59,57.73"
2024-05-28_13-10-11.647546,"70.50,57.20"
2024-05-28_13-10-11.647640,"41,56.19"
2024-05-28_13-10-11.647734,"74.59,57.75"
2024-05-28_13-10-11.647840,"79.23,90.44"
2024-05-28_13-10-11.647951,"74.60,98.05"
2024-05-28_13-10-11.648057,"77.09,79.15"
2024-05-28_13-10-11.648157,"95.39,54.05"
2024-05-28_13-10-11.648262,"92.73,57.27"
2024-05-28_13-10-11.648353,"93.93,48.18"
2024-05-28_13-10-11.648493,"107.59,57.73"
2024-05-28_13-10-11.648605,"70.50,57.20"
2024-05-28_13-10-21.868827,"71.61,57.03"
2024-05-28_13-10-21.871001,",87.25"
2024-05-28_13-10-21.871111,"82.25,88.38"
2024-05-28_13-10-21.871231,"100.73,88.39"
2024-05-28_13-10-21.871463,"98.54,77.67"
2024-05-28_13-10-21.883733,"101.33,69.09"
2024-05-28_13-10-21.884028,"106.83,58.35"
2024-05-28_13-10-21.884180,"74.84,57.26"
2024-05-28_13-10-21.884542,"68.22,57.26"
2024-05-28_13-10-21.884884,"82.34,57.97"
2024-05-28_13-10-21.885149,",75.24"
2024-05-28_13-10-21.885250,"77.13,87.25"
2024-05-28_13-10-21.885564,"82.25,88.38"
2024-05-28_13-10-21.885699,"100.73,88.39"
2024-05-28_13-10-21.885809,"98.54,77.67"
2024-05-28_13-10-21.885922,"101.33,69.09"
2024-05-28_13-10-21.886060,"106.83,58.35"
2024-05-28_13-10-21.888496,"74.84,57.26"
2024-05-28_13-10-21.888844,"68.22,57.26"
2024-05-28_13-10-21.891345,"82.34,57.97"
2024-05-28_13-10-21.893107,"80.76,93.63"
2024-05-28_13-10-21.925953,"51.93,100.57"
2024-05-28_13-10-21.958474,"75.55,87.25"
2024-05-28_13-10-21.991243,"85.88,82.57"
2024-05-28_13-10-22.023955,"93.06,69.55"
2024-05-28_13-10-22.056718,"101.89,47.26"
2024-05-28_13-10-22.089425,"106.78,58.19"
2024-05-28_13-10-22.118239,"58.81,59.24"
2024-05-28_13-10-22.150990,"68.77,58.72"
2024-05-28_13-10-22.183825,"79.08,73.30"
2024-05-28_13-10-22.216512,"79.62,86.19"
2024-05-28_13-10-22.249317,"70.30,102.66"
2024-05-28_13-10-22.282016,"87.41,85.90"
2024-05-28_13-10-22.310778,"91.94,84.83"
2024-05-28_13-10-22.343508,"109.66,59.45"
2024-05-28_13-10-22.376225,"100.27,55.52"
2024-05-28_13-10-22.409024,"89.81,55.38"
2024-05-28_13-10-22.441791,"63.08,56.99"
2024-05-28_13-10-22.474541,"79.87,87.09"
2024-05-28_13-10-22.507234,"76.33,98.15"
2024-05-28_13-10-22.539965,"73.63,84.23"
2024-05-28_13-10-22.568773,"88.61,84.50"
2024-05-28_13-10-22.601520,"90.16,82.82"
2024-05-28_13-10-22.634324,"101.98,87.35"
2024-05-28_13-10-22.667106,"109.23,58.96"
2024-05-28_13-10-22.699981,"76.72,56.25"
2024-05-28_13-10-22.732569,"76.47,55.99"
2024-05-28_13-10-22.765236,"63.53,61.73"
2024-05-28_13-10-22.794040,"81.50,74.54"
2024-05-28_13-10-22.826776,"72.10,97.15"
2024-05-28_13-10-22.859560,"84.94,86.09"
2024-05-28_13-10-22.892369,"90.00,81.89"
2024-05-28_13-10-22.925104,"97.72,78.52"
2024-05-28_13-10-22.957875,"98.11,84.13"
2024-05-28_13-10-22.990557,"107.25,54.09"
2024-05-28_13-10-23.019274,"98.08,52.99"
2024-05-28_13-10-23.052084,"69.09,58.72"
2024-05-28_13-10-23.084979,"74.03,63.15"
2024-05-28_13-10-23.117639,"75.23,79.88"
2024-05-28_13-10-23.150388,"86.87,87.33"
2024-05-28_13-10-23.183110,"85.23,82.11"
2024-05-28_13-10-23.215858,"93.51,88.50"
2024-05-28_13-10-23.244596,"109.01,79.72"
2024-05-28_13-10-23.277452,"86.09,56.70"
2024-05-28_13-10-23.310139,"106.45,53.14"
2024-05-28_13-10-23.342884,"85.93,57.97"
2024-05-28_13-10-23.375641,"67.93,53.91"
2024-05-28_13-10-23.408405,"73.72,83.46"
2024-05-28_13-10-23.441113,"69.95,82.89"
2024-05-28_13-10-23.469892,"85.75,89.31"
2024-05-28_13-10-23.502655,"84.16,82.44"
2024-05-28_13-10-23.535406,"97.99,83.14"
2024-05-28_13-10-23.568171,"105.23,84.65"
2024-05-28_13-10-23.600946,"100.43,53.52"
2024-05-28_13-10-23.633708,"100.62,54.08"
2024-05-28_13-10-23.666386,"78.88,61.91"
2024-05-28_13-10-23.695156,"76.84,60.29"
2024-05-28_13-10-23.727972,"70.05,63.56"
2024-05-28_13-10-23.760667,"80.40,82.63"
2024-05-28_13-10-23.793437,"74.21,75.09"
2024-05-28_13-10-23.826217,"99.71,91.00"
2024-05-28_13-10-23.858952,"89.26,84.46"
2024-05-28_13-10-23.891667,"103.66,68.62"
2024-05-28_13-10-23.920469,"100.25,57.65"
2024-05-28_13-10-23.953239,"95.55,47.91"
2024-05-28_13-10-23.985990,"77.06,61.95"
2024-05-28_13-10-24.018699,"69.73,60.01"
2024-05-28_13-10-24.051462,"66.36,99.28"
2024-05-28_13-10-24.084225,"86.38,88.00"
2024-05-28_13-10-24.116974,"69.54,78.13"
2024-05-28_13-10-24.145693,"99.60,89.80"
2024-05-28_13-10-24.178496,"97.95,56.81"
2024-05-28_13-10-24.211209,"93.53,53.07"
2024-05-28_13-10-24.244032,"100.83,58.06"
2024-05-28_13-10-24.276800,"78.59,57.11"
2024-05-28_13-10-24.309549,"75.62,56.47"
2024-05-28_13-10-24.342236,"75.37,67.77"
2024-05-28_13-10-24.374952,"74.95,102.51"
2024-05-28_13-10-24.403735,"94.24,86.85"
2024-05-28_13-10-24.436512,"80.14,58.13"
2024-05-28_13-10-24.469313,"89.31,56.03"
2024-05-28_13-10-24.502075,"82.23,60.46"
2024-05-28_13-10-24.534857,"75.17,50.44"
2024-05-28_13-10-24.567492,"109.80,58.41"
2024-05-28_13-10-24.596213,"70.01,57.56"
2024-05-28_13-10-24.629040,"77.41,56.17"
2024-05-28_13-10-24.661795,"79.19,69.08"
2024-05-28_13-10-24.694592,"72.19,93.98"
2024-05-28_13-10-24.727327,"80.79,89.54"
2024-05-28_13-10-24.760084,"87.29,55.27"
2024-05-28_13-10-24.793008,"89.59,53.06"
2024-05-28_13-10-24.825512,"102.67,58.67"
2024-05-28_13-10-24.854305,"79.36,54.11"
2024-05-28_13-10-24.887103,"99.95,56.55"
2024-05-28_13-10-24.919830,"74.13,57.16"
2024-05-28_13-10-24.952608,"70.22,82.38"
2024-05-28_13-10-24.985364,"73.12,89.85"
2024-05-28_13-10-25.018084,"75.06,87.13"
2024-05-28_13-10-25.050762,"75.05,89.74"
2024-05-28_13-10-25.079580,"88.32,58.47"
2024-05-28_13-10-25.112405,"92.13,49.15"
2024-05-28_13-10-25.145142,"107.19,57.52"
2024-05-28_13-10-25.177908,"75.23,55.38"
2024-05-28_13-10-25.210649,"89.25,58.42"
2024-05-28_13-10-25.243363,"70.76,59.42"
2024-05-28_13-10-25.276067,"86.72,78.96"
2024-05-28_13-10-25.304889,"68.82,101.18"
2024-05-28_13-10-25.337661,"90.09,84.53"
2024-05-28_13-10-25.370390,"77.35,87.78"
2024-05-28_13-10-25.403197,"94.45,60.75"
2024-05-28_13-10-25.435957,"89.61,54.40"
2024-05-28_13-10-25.468631,"102.00,54.54"
2024-05-28_13-10-25.501361,"106.01,51.21"
2024-05-28_13-10-25.536043,"87.60,57.24"
2024-05-28_13-10-25.562994,"87.05,68.15"
2024-05-28_13-10-25.595743,"77.03,71.65"
2024-05-28_13-10-25.628451,"75.01,78.84"
2024-05-28_13-10-25.661169,"82.64,85.62"
2024-05-28_13-10-25.693989,"78.67,71.47"
2024-05-28_13-10-25.726616,"91.57,63.85"
2024-05-28_13-10-25.755462,"83.01,55.95"
2024-05-28_13-10-25.788171,"91.57,55.19"
2024-05-28_13-10-25.821020,"104.85,58.10"
2024-05-28_13-10-25.853738,"87.28,49.36"
2024-05-28_13-10-25.886582,"79.29,59.57"
2024-05-28_13-10-25.919202,"74.69,74.48"
2024-05-28_13-10-25.951982,"76.90,92.52"
2024-05-28_13-10-25.980716,"81.40,90.58"
2024-05-28_13-10-26.013474,"87.73,76.16"
2024-05-28_13-10-26.046350,"90.28,57.21"
2024-05-28_13-10-26.079042,"94.01,51.66"
2024-05-28_13-10-26.111806,"93.49,54.66"
2024-05-28_13-10-26.144494,"99.69,59.74"
2024-05-28_13-10-26.177182,"73.40,56.28"
2024-05-28_13-10-26.206046,"72.54,86.28"
2024-05-28_13-10-26.238920,"72.34,72.42"
2024-05-28_13-10-26.271518,"73.52,100.69"
2024-05-28_13-10-26.304278,"90.24,88.60"
2024-05-28_13-10-26.337035,"81.50,57.54"
2024-05-28_13-10-26.369794,"98.12,52.94"
2024-05-28_13-10-26.402497,"96.30,57.26"
2024-05-28_13-10-26.431253,"80.74,48.53"
2024-05-28_13-10-26.464092,"89.25,60.58"
2024-05-28_13-10-26.496809,"63.51,57.13"
2024-05-28_13-10-26.529571,"79.52,52.57"
2024-05-28_13-10-26.562321,"79.12,100.36"
2024-05-28_13-10-26.595106,"80.22,83.70"
2024-05-28_13-10-26.627775,"87.14,86.53"
2024-05-28_13-10-26.656552,"89.36,54.23"
2024-05-28_13-10-26.689300,"92.31,52.60"
2024-05-28_13-10-26.722068,"95.79,58.63"
2024-05-28_13-10-26.754813,"96.07,55.49"
2024-05-28_13-10-26.787612,"86.54,56.51"
2024-05-28_13-10-26.820343,"65.56,55.99"
2024-05-28_13-10-26.853096,"76.66,66.88"
2024-05-28_13-10-26.881814,"76.92,96.34"
2024-05-28_13-10-31.964325,"72.68,86.84"
2024-05-28_13-10-31.965241,"5,54.40"
2024-05-28_13-10-31.965312,"79.88,55.24"
2024-05-28_13-10-31.965367,"73.03,54.51"
2024-05-28_13-10-31.965424,"76.87,104.35"
2024-05-28_13-10-31.965492,"84.19,81.87"
2024-05-28_13-10-31.965559,"73.84,85.53"
2024-05-28_13-10-31.965612,"85.58,93.77"
2024-05-28_13-10-31.965660,",85.16"
2024-05-28_13-10-31.965724,"107.28,74.64"
2024-05-28_13-10-31.965786,"94.94,70.29"
2024-05-28_13-10-31.965841,"109.35,54.40"
2024-05-28_13-10-31.965903,"79.88,55.24"
2024-05-28_13-10-31.965956,"73.03,54.51"
2024-05-28_13-10-31.966015,"76.87,104.35"
2024-05-28_13-10-31.966067,"84.19,81.87"
2024-05-28_13-10-31.966174,"73.84,85.53"
2024-05-28_13-10-31.966256,"85.58,93.77"
2024-05-28_13-10-31.969037,"106.07,79.51"
2024-05-28_13-10-32.001858,"106.96,72.14"
2024-05-28_13-10-32.034675,"96.94,55.99"
2024-05-28_13-10-32.067297,"79.74,56.99"
2024-05-28_13-10-32.100044,"62.13,59.29"
2024-05-28_13-10-32.128794,"87.32,54.39"
2024-05-28_13-10-32.161597,"65.17,101.33"
2024-05-28_13-10-32.194324,"77.54,86.86"
2024-05-28_13-10-32.227157,"75.42,92.76"
2024-05-28_13-10-32.259860,"95.24,84.09"
2024-05-28_13-10-32.292619,"93.37,88.40"
2024-05-28_13-10-32.325320,"107.38,69.94"
2024-05-28_13-10-32.354079,"103.68,53.10"
2024-05-28_13-10-32.386877,"80.57,55.62"
2024-05-28_13-10-32.419592,"64.41,63.28"
2024-05-28_13-10-32.452372,"83.78,82.87"
2024-05-28_13-10-32.485156,"64.55,98.35"
2024-05-28_13-10-32.517883,"59.09,87.89"
2024-05-28_13-10-32.550585,"80.09,89.79"
2024-05-28_13-10-32.579381,"104.96,93.29"
2024-05-28_13-10-32.612148,"82.69,79.71"
2024-05-28_13-10-32.644869,"98.61,54.33"
2024-05-28_13-10-32.677673,"95.74,58.13"
2024-05-28_13-10-32.710480,"70.98,50.90"
2024-05-28_13-10-32.743175,"71.41,61.90"
2024-05-28_13-10-32.775863,"70.56,74.99"
2024-05-28_13-10-32.804712,"80.85,90.48"
2024-05-28_13-10-32.837396,"77.22,90.69"
2024-05-28_13-10-32.870187,"89.07,88.79"
2024-05-28_13-10-32.902950,"98.04,90.27"
2024-05-28_13-10-32.935723,"100.76,55.27"
2024-05-28_13-10-32.968415,"97.84,54.40"
2024-05-28_13-10-33.001113,"91.57,59.48"
2024-05-28_13-10-33.029880,"63.60,59.04"
2024-05-28_13-10-33.062644,"74.81,78.02"
2024-05-28_13-10-33.095455,"72.67,81.55"
2024-05-28_13-10-33.128195,"84.11,89.94"
2024-05-28_13-10-33.160966,"93.45,101.15"
2024-05-28_13-10-33.193792,"80.96,79.28"
2024-05-28_13-10-33.226448,"105.40,70.09"
2024-05-28_13-10-33.255222,"100.47,58.80"
2024-05-28_13-10-33.287958,"103.97,47.30"
2024-05-28_13-10-33.320791,"82.56,60.09"
2024-05-28_13-10-33.353589,"74.29,59.41"
2024-05-28_13-10-33.386295,"74.60,65.55"
2024-05-28_13-10-33.419023,"82.30,90.92"
2024-05-28_13-10-33.451709,"81.07,79.60"
2024-05-28_13-10-33.480441,"100.10,86.55"
2024-05-28_13-10-33.513280,"88.86,79.23"
2024-05-28_13-10-33.545969,"96.66,71.30"
2024-05-28_13-10-33.578790,"98.46,59.33"
2024-05-28_13-10-33.611518,"93.52,55.26"
2024-05-28_13-10-33.644266,"73.89,57.44"
2024-05-28_13-10-33.676952,"74.09,58.99"
2024-05-28_13-10-33.705718,"74.15,93.70"
2024-05-28_13-10-33.738559,"83.85,93.36"
2024-05-28_13-10-33.771293,"82.34,84.09"
2024-05-28_13-10-33.804019,"87.70,84.37"
2024-05-28_13-10-33.836809,"90.10,75.21"
2024-05-28_13-10-33.869549,"99.55,66.03"
2024-05-28_13-10-33.902234,"108.58,57.34"
2024-05-28_13-10-33.931074,"69.05,57.68"
2024-05-28_13-10-33.963827,"72.62,56.24"
2024-05-28_13-10-33.996631,"81.37,80.54"
2024-05-28_13-10-34.029354,"77.03,84.12"
2024-05-28_13-10-34.062072,"80.50,96.87"
2024-05-28_13-10-34.095013,"84.45,81.15"
2024-05-28_13-10-34.127552,"82.36,86.94"
2024-05-28_13-10-34.160368,"109.86,60.94"
2024-05-28_13-10-34.189328,"95.46,54.74"
2024-05-28_13-10-34.221902,"74.92,55.56"
2024-05-28_13-10-34.254739,"76.34,55.31"
2024-05-28_13-10-34.287458,"83.18,49.60"
2024-05-28_13-10-34.320078,"73.32,89.76"
2024-05-28_13-10-34.352829,"67.90,87.11"
2024-05-28_13-10-34.385517,"78.14,90.23"
2024-05-28_13-10-34.414293,"83.28,85.11"
2024-05-28_13-10-34.447166,"95.82,80.43"
2024-05-28_13-10-34.479978,"100.07,59.97"
2024-05-28_13-10-34.522536,"78.22,55.66"
2024-05-28_13-10-34.545534,"80.27,56.54"
2024-05-28_13-10-34.578673,"78.81,55.42"
2024-05-28_13-10-34.610918,"80.10,67.30"
2024-05-28_13-10-34.639753,"69.29,100.64"
2024-05-28_13-10-34.672772,"80.81,86.29"
2024-05-28_13-10-34.705563,"67.66,99.73"
2024-05-28_13-10-34.737933,"80.37,90.16"
2024-05-28_13-10-34.770720,"93.79,57.49"
2024-05-28_13-10-34.803592,"96.72,55.89"
2024-05-28_13-10-34.836159,"86.49,53.95"
2024-05-28_13-10-34.864968,"71.99,55.86"
2024-05-28_13-10-34.897714,"76.57,71.34"
2024-05-28_13-10-34.930544,"73.64,75.01"
2024-05-28_13-10-34.963273,"71.86,95.25"
2024-05-28_13-10-34.996200,"82.95,94.03"
2024-05-28_13-10-35.028730,"83.48,95.03"
2024-05-28_13-10-35.061396,"89.52,74.63"
2024-05-28_13-10-35.090304,"88.57,57.52"
2024-05-28_13-10-35.122993,"98.60,56.11"
2024-05-28_13-10-35.155725,"77.63,59.63"
2024-05-28_13-10-35.188633,"80.13,52.49"
2024-05-28_13-10-35.222157,"67.94,82.07"
2024-05-28_13-10-35.253997,"73.57,75.01"
2024-05-28_13-10-35.286807,"65.87,93.78"
2024-05-28_13-10-35.315531,"87.56,83.73"
2024-05-28_13-10-35.348249,"85.06,87.77"
2024-05-28_13-10-35.381097,"108.06,54.13"
2024-05-28_13-10-35.413772,"95.12,53.36"
2024-05-28_13-10-35.446553,"79.45,56.21"
2024-05-28_13-10-35.479270,"67.02,63.08"
2024-05-28_13-10-35.512320,"80.50,67.35"
2024-05-28_13-10-35.540816,"68.27,97.43"
2024-05-28_13-10-35.573515,"78.49,85.71"
2024-05-28_13-10-35.606247,"86.77,94.86"
2024-05-28_13-10-35.639026,"99.80,88.29"
2024-05-28_13-10-35.671869,"90.12,56.61"
2024-05-28_13-10-35.704554,"106.85,54.82"
2024-05-28_13-10-35.737299,"95.45,58.52"
2024-05-28_13-10-35.766086,"68.37,51.59"
2024-05-28_13-10-35.798746,"78.33,65.85"
2024-05-28_13-10-35.831662,"71.41,86.03"
2024-05-28_13-10-35.864304,"68.96,88.05"
2024-05-28_13-10-35.897171,"92.44,95.76"
2024-05-28_13-10-35.929865,"91.21,87.61"
2024-05-28_13-10-35.962576,"106.00,69.58"
2024-05-28_13-10-35.995267,"101.21,52.74"
2024-05-28_13-10-36.024194,"94.43,55.47"
2024-05-28_13-10-36.056928,"73.18,60.74"
2024-05-28_13-10-36.089680,"78.23,60.20"
2024-05-28_13-10-36.122334,"67.23,80.65"
2024-05-28_13-10-36.155178,"78.79,82.43"
2024-05-28_13-10-36.187861,"84.95,89.68"
2024-05-28_13-10-36.216605,"97.47,98.87"
2024-05-28_13-10-36.249354,"95.06,75.29"
2024-05-28_13-10-36.282141,"109.88,53.04"
2024-05-28_13-10-36.314954,"106.37,58.22"
2024-05-28_13-10-36.347699,"78.22,50.17"
2024-05-28_13-10-36.380430,"70.88,61.80"
2024-05-28_13-10-36.413122,"76.34,82.83"
2024-05-28_13-10-36.441869,"72.39,93.55"
2024-05-28_13-10-36.474624,"88.65,89.50"
2024-05-28_13-10-36.507425,"84.89,82.58"
2024-05-28_13-10-36.540219,"102.13,87.90"
2024-05-28_13-10-36.572928,"96.32,69.18"
2024-05-28_13-10-36.605739,"101.43,54.09"
2024-05-28_13-10-36.638435,"101.38,60.27"
2024-05-28_13-10-36.671149,"66.82,58.50"
2024-05-28_13-10-36.699995,"68.66,56.99"
2024-05-28_13-10-36.732698,"73.97,72.11"
2024-05-28_13-10-36.765476,"89.39,91.39"
2024-05-28_13-10-36.798239,"83.01,93.35"
2024-05-28_13-10-36.830991,"87.00,82.69"
2024-05-28_13-10-36.863709,"98.22,88.42"
2024-05-28_13-10-36.896443,"106.12,59.34"
2024-05-28_13-10-36.925227,"105.74,48.58"
2024-05-28_13-10-36.958031,"88.13,59.89"
2024-05-28_13-10-36.990800,"60.15,58.31"
2024-05-28_13-10-37.023594,"75.39,55.65"
2024-05-28_13-10-37.056269,"80.63,88.54"
2024-05-28_13-10-37.088996,"80.51,79.05"
2024-05-28_13-10-37.121696,"98.74,98.19"
2024-05-28_13-10-37.150564,"87.89,76.69"
2024-05-28_13-10-37.183306,"88.41,72.40"
2024-05-28_13-10-37.216046,"92.05,60.84"
2024-05-28_13-10-37.248742,"96.64,57.03"
2024-05-28_13-10-37.281528,"74.73,56.73"
2024-05-28_13-10-37.314257,"75.68,57.17"
2024-05-28_13-10-37.347034,"71.42,96.92"
2024-05-28_13-10-37.375790,"70.88,99.71"
2024-05-28_13-10-37.408694,"75.64,94.88"
2024-05-28_13-10-37.441403,"72.24,92.52"
2024-05-28_13-10-37.474153,"89.85,78.36"
2024-05-28_13-10-37.506872,"97.74,47.86"
2024-05-28_13-10-37.539725,"116.82,60.04"
2024-05-28_13-10-37.572297,"72.75,56.45"
2024-05-28_13-10-37.601088,"73.56,56.01"
2024-05-28_13-10-37.633860,"82.37,98.99"
2024-05-28_13-10-37.666598,"79.82,83.65"
2024-05-28_13-10-37.699407,"69.42,94.98"
2024-05-28_13-10-37.732185,"81.61,83.86"
2024-05-28_13-10-37.764866,"91.60,85.68"
2024-05-28_13-10-37.797658,"108.61,83.42"
2024-05-28_13-10-37.826379,"80.91,55.11"
2024-05-28_13-10-37.859116,"93.70,56.15"
2024-05-28_13-10-37.891924,"73.39,56.11"
2024-05-28_13-10-37.924631,"67.00,56.67"
2024-05-28_13-10-37.957405,"76.14,98.71"
2024-05-28_13-10-37.990146,"80.23,84.20"
2024-05-28_13-10-38.022827,"85.32,86.95"
2024-05-28_13-10-38.051740,"84.91,92.88"
2024-05-28_13-10-38.084414,"104.62,81.19"
2024-05-28_13-10-38.117178,"107.92,71.98"
2024-05-28_13-10-38.149907,"99.00,55.74"
2024-05-28_13-10-38.182662,"95.36,55.60"
2024-05-28_13-10-38.215428,"64.13,59.78"
2024-05-28_13-10-38.248150,"86.27,54.34"
2024-05-28_13-10-38.276918,"70.51,95.54"
2024-05-28_13-10-38.309652,"71.22,83.36"
2024-05-28_13-10-38.342423,"88.07,86.53"
2024-05-28_13-10-38.375266,"99.34,81.95"
2024-05-28_13-10-38.408029,"85.46,86.21"
2024-05-28_13-10-38.440744,"107.84,53.41"
2024-05-28_13-10-38.473437,"101.90,52.93"
2024-05-28_13-10-38.502135,"76.75,56.17"
2024-05-28_13-10-38.534973,"66.04,62.73"
2024-05-28_13-10-38.567689,"80.71,65.46"
2024-05-28_13-10-38.600456,"71.52,92.54"
2024-05-28_13-10-38.633325,"70.82,82.88"
2024-05-28_13-10-38.666063,"82.25,98.09"
2024-05-28_13-10-38.698714,"95.76,94.05"
2024-05-28_13-10-38.727428,"89.25,73.08"
2024-05-28_13-10-38.760169,"97.48,53.93"
2024-05-28_13-10-38.793000,"92.17,58.37"
2024-05-28_13-10-38.825803,"69.34,50.73"
2024-05-28_13-10-38.858578,"82.57,91.11"
2024-05-28_13-10-38.891386,"75.80,72.68"
2024-05-28_13-10-38.923982,"77.28,93.80"
2024-05-28_13-10-38.952808,"93.81,85.74"
2024-05-28_13-10-38.985538,"85.07,90.36"
2024-05-28_13-10-39.018339,"93.51,92.25"
2024-05-28_13-10-39.051207,"101.32,55.89"
2024-05-28_13-10-39.083805,"85.73,55.44"
2024-05-28_13-10-39.116604,"88.95,59.47"
2024-05-28_13-10-39.149283,"64.40,60.34"
2024-05-28_13-10-39.178007,"77.16,75.00"
2024-05-28_13-10-39.210886,"70.20,83.31"
2024-05-28_13-10-39.243585,"71.86,85.31"
2024-05-28_13-10-39.276379,"67.68,100.44"
2024-05-28_13-10-39.309115,"86.02,80.98"
2024-05-28_13-10-39.341823,"98.65,91.32"
2024-05-28_13-10-39.374544,"94.60,59.09"
2024-05-28_13-10-39.407276,"101.56,47.52"
2024-05-28_13-10-39.436073,"85.71,62.08"
2024-05-28_13-10-39.469350,"57.70,59.96"
2024-05-28_13-10-39.501691,"77.59,64.16"
2024-05-28_13-10-39.534401,"78.35,93.41"
2024-05-28_13-10-39.567224,"73.48,82.79"
2024-05-28_13-10-39.599937,"76.04,95.20"
2024-05-28_13-10-39.628611,"92.15,77.08"
2024-05-28_13-10-39.661346,"96.22,84.40"
2024-05-28_13-10-39.694152,"108.17,59.02"
2024-05-28_13-10-39.726907,"92.80,54.62"
2024-05-28_13-10-39.759694,"80.61,56.56"
2024-05-28_13-10-39.792388,"64.19,58.07"
2024-05-28_13-10-39.825126,"75.92,57.42"
2024-05-28_13-10-39.853857,"84.59,93.72"
2024-05-28_13-10-39.886638,"75.31,84.09"
2024-05-28_13-10-39.919361,"89.81,86.57"
2024-05-28_13-10-39.952175,"93.68,83.71"
2024-05-28_13-10-39.985064,"101.46,67.10"
2024-05-28_13-10-40.017833,"102.20,57.97"
2024-05-28_13-10-40.050437,"85.13,56.45"
2024-05-28_13-10-40.083083,"80.49,56.60"
2024-05-28_13-10-40.111982,"72.98,58.56"
2024-05-28_13-10-40.144765,"74.92,79.32"
2024-05-28_13-10-40.177457,"74.49,98.94"
2024-05-28_13-10-40.210277,"76.81,85.39"
2024-05-28_13-10-40.243016,"71.87,91.48"
2024-05-28_13-10-40.275690,"99.73,79.34"
2024-05-28_13-10-40.308382,"83.67,70.59"
2024-05-28_13-10-40.337162,"110.52,53.87"
2024-05-28_13-10-40.369986,"81.25,54.58"
2024-05-28_13-10-40.402754,"69.07,56.93"
2024-05-28_13-10-40.435489,"82.45,70.81"
2024-05-28_13-10-40.468326,"77.67,83.15"
2024-05-28_13-10-40.505993,"60.85,92.10"
2024-05-28_13-10-40.534352,"73.82,92.14"
2024-05-28_13-10-40.562535,"78.15,100.58"
2024-05-28_13-10-40.595253,"95.64,73.00"
2024-05-28_13-10-40.628050,"77.03,54.70"
2024-05-28_13-10-40.660776,"106.52,54.61"
2024-05-28_13-10-40.693535,"75.71,58.79"
2024-05-28_13-10-40.726281,"81.44,53.24"
2024-05-28_13-10-40.758977,"68.56,74.96"
2024-05-28_13-10-40.787847,"81.37,81.39"
2024-05-28_13-10-40.820648,"74.23,87.15"
2024-05-28_13-10-40.853332,"87.33,90.04"
2024-05-28_13-10-40.886108,"86.14,89.12"
2024-05-28_13-10-40.918895,"104.22,73.85"
2024-05-28_13-10-40.951531,"75.71,52.51"
2024-05-28_13-10-40.984245,"92.17,55.69"
2024-05-28_13-10-41.013055,"70.68,63.85"
2024-05-28_13-10-41.046002,"77.32,58.40"
2024-05-28_13-10-41.078645,"70.63,75.77"
2024-05-28_13-10-41.111403,"71.99,74.10"
2024-05-28_13-10-41.144133,"63.00,93.05"
2024-05-28_13-10-41.176840,"93.92,91.11"
2024-05-28_13-10-41.209531,"93.22,75.62"
2024-05-28_13-10-41.238336,"97.22,69.12"
2024-05-28_13-10-41.271189,"85.98,59.35"
2024-05-28_13-10-41.303952,"86.03,50.80"
2024-05-28_13-10-41.336671,"77.41,61.01"
2024-05-28_13-10-41.369420,"83.01,58.91"
2024-05-28_13-10-41.402165,"70.09,79.73"
2024-05-28_13-10-41.434856,"83.53,90.71"
2024-05-28_13-10-41.463616,"79.52,89.77"
2024-05-28_13-10-41.496353,"97.69,90.42"
2024-05-28_13-10-41.529240,"93.94,77.83"
2024-05-28_13-10-41.561911,"99.50,53.80"
2024-05-28_13-10-41.594684,"109.88,58.63"
2024-05-28_13-10-41.627404,"78.83,57.18"
2024-05-28_13-10-41.660131,"70.54,56.87"
2024-05-28_13-10-41.688884,"83.10,58.29"
2024-05-28_13-10-41.721654,"82.11,90.20"
2024-05-28_13-10-41.754443,"69.66,94.42"
