timestamp,EMG
2024-05-28_12-59-26.248859,"78.72,53.97"
2024-05-28_12-59-26.249458,"70.79,67.33"
2024-05-28_12-59-26.249905,"71.75,82.53"
2024-05-28_12-59-26.250306,"89.42,85.48"
2024-05-28_12-59-26.250632,"96.90,93.13"
2024-05-28_12-59-26.250930,"94.47,83.91"
2024-05-28_12-59-26.251229,"94,56.93"
2024-05-28_12-59-26.251567,"97.38,54.61"
2024-05-28_12-59-26.252206,"100.07,54.60"
2024-05-28_12-59-26.252672,"66.70,60.13"
2024-05-28_12-59-26.253234,"78.72,53.97"
2024-05-28_12-59-26.253569,"70.79,67.33"
2024-05-28_12-59-26.253890,"71.75,82.53"
2024-05-28_12-59-26.254276,"89.42,85.48"
2024-05-28_12-59-26.254584,"96.90,93.13"
2024-05-28_12-59-26.254881,"94.47,83.91"
2024-05-28_12-59-27.908297,"91.64,76.51"
2024-05-28_12-59-27.941002,"105.57,81.29"
2024-05-28_12-59-27.969792,"97.13,56.92"
2024-05-28_12-59-28.002562,"99.54,46.92"
2024-05-28_12-59-28.035366,"106.12,57.21"
2024-05-28_12-59-28.068105,"63.90,56.47"
2024-05-28_12-59-28.100859,"70.45,54.65"
2024-05-28_12-59-28.133595,"71.54,71.30"
2024-05-28_12-59-28.162347,"72.04,82.01"
2024-05-28_12-59-28.195500,"76.65,94.15"
2024-05-28_12-59-28.228436,"74.04,85.12"
2024-05-28_12-59-28.260727,"66.64,91.95"
2024-05-28_12-59-28.293376,"86.19,73.12"
2024-05-28_12-59-28.326155,"100.98,54.52"
2024-05-28_12-59-28.358969,"107.30,53.28"
2024-05-28_12-59-28.387584,"75.12,52.07"
2024-05-28_12-59-28.420352,"92.33,54.83"
2024-05-28_12-59-28.453129,"74.76,59.06"
2024-05-28_12-59-28.486064,"62.19,57.41"
2024-05-28_12-59-28.518684,"72.91,75.27"
2024-05-28_12-59-28.552139,"67.53,82.50"
2024-05-28_12-59-28.584089,"94.72,86.19"
2024-05-28_12-59-28.612828,"85.67,97.83"
2024-05-28_12-59-28.645637,"87.36,76.51"
2024-05-28_12-59-28.678400,"96.61,88.15"
2024-05-28_12-59-28.711136,"100.51,58.10"
2024-05-28_12-59-28.744029,"100.05,47.11"
2024-05-28_12-59-28.776716,"109.05,57.41"
2024-05-28_12-59-28.809565,"79.65,55.29"
2024-05-28_12-59-28.842058,"78.77,54.46"
2024-05-28_12-59-28.870882,"78.94,62.91"
2024-05-28_12-59-28.903736,"79.17,64.39"
2024-05-28_12-59-28.937122,"65.26,101.89"
2024-05-28_12-59-28.973870,"89.42,88.98"
2024-05-28_12-59-29.002207,"73.37,88.51"
2024-05-28_12-59-29.048674,"79.64,87.48"
2024-05-28_12-59-29.074340,"89.43,58.08"
2024-05-28_12-59-29.096234,"83.25,56.78"
2024-05-28_12-59-29.129115,"88.98,52.04"
2024-05-28_12-59-29.161786,"94.05,55.00"
2024-05-28_12-59-29.194706,"79.80,57.91"
2024-05-28_12-59-29.227263,"80.48,56.78"
2024-05-28_12-59-29.259948,"74.45,55.45"
2024-05-28_12-59-29.292698,"66.80,82.40"
2024-05-28_12-59-29.321409,"97.72,84.18"
2024-05-28_12-59-29.354205,"80.70,96.83"
2024-05-28_12-59-29.386892,"88.54,77.43"
2024-05-28_12-59-29.419686,"98.40,88.27"
2024-05-28_12-59-29.452460,"101.85,73.11"
2024-05-28_12-59-29.485230,"98.28,46.73"
2024-05-28_12-59-29.517877,"114.78,56.97"
2024-05-28_12-59-29.546678,"73.49,55.39"
2024-05-28_12-59-29.579410,"73.31,53.69"
2024-05-28_12-59-29.612235,"73.09,62.96"
2024-05-28_12-59-29.644938,"76.02,79.04"
2024-05-28_12-59-29.677707,"76.67,92.85"
2024-05-28_12-59-29.710447,"84.59,90.37"
2024-05-28_12-59-29.743152,"88.74,84.46"
2024-05-28_12-59-29.771973,"96.83,80.92"
2024-05-28_12-59-29.804772,"97.13,83.36"
2024-05-28_12-59-29.837552,"107.47,53.91"
2024-05-28_12-59-29.872291,"89.15,51.95"
2024-05-28_12-59-29.903307,"80.93,55.15"
2024-05-28_12-59-29.935770,"85.67,59.80"
2024-05-28_12-59-29.968410,"74.77,57.32"
2024-05-28_12-59-29.997238,"70.24,74.84"
2024-05-28_12-59-30.029942,"75.69,79.58"
2024-05-28_12-59-30.062752,"83.00,86.43"
2024-05-28_12-59-30.095546,"92.46,98.54"
2024-05-28_12-59-30.128274,"81.48,79.46"
2024-05-28_12-59-30.161004,"103.75,81.24"
2024-05-28_12-59-30.193717,"95.38,57.08"
2024-05-28_12-59-30.222423,"100.03,47.48"
2024-05-28_12-59-30.255242,"108.79,57.00"
2024-05-28_12-59-30.288006,"65.59,56.62"
2024-05-28_12-59-30.320781,"70.20,54.92"
2024-05-28_12-59-30.353640,"71.21,70.63"
2024-05-28_12-59-30.386462,"71.96,84.29"
2024-05-28_12-59-30.419136,"69.19,98.23"
2024-05-28_12-59-30.447753,"90.66,85.33"
2024-05-28_12-59-30.480478,"84.78,83.57"
2024-05-28_12-59-30.513275,"96.78,79.01"
2024-05-28_12-59-30.546118,"95.32,69.70"
2024-05-28_12-59-30.578938,"108.70,54.07"
2024-05-28_12-59-30.611650,"106.60,51.87"
2024-05-28_12-59-30.644242,"88.34,53.66"
2024-05-28_12-59-30.672972,"65.80,60.13"
2024-05-28_12-59-30.705743,"75.81,57.35"
2024-05-28_12-59-30.738536,"68.98,59.71"
2024-05-28_12-59-30.771326,"73.20,80.14"
2024-05-28_12-59-30.804074,"85.77,84.71"
2024-05-28_12-59-30.836842,"92.58,90.41"
2024-05-28_12-59-30.869568,"82.73,81.55"
2024-05-28_12-59-30.902294,"103.69,81.74"
2024-05-28_12-59-30.931097,"99.78,57.10"
2024-05-28_12-59-30.963834,"98.47,47.02"
2024-05-28_12-59-30.996639,"104.05,57.20"
2024-05-28_12-59-31.029340,"59.95,56.64"
2024-05-28_12-59-31.062264,"68.69,54.06"
2024-05-28_12-59-31.095459,"80.88,80.35"
2024-05-28_12-59-31.123645,"76.39,79.21"
2024-05-28_12-59-31.156282,"77.96,95.28"
2024-05-28_12-59-31.189077,"84.44,80.62"
2024-05-28_12-59-31.221860,"92.33,79.87"
2024-05-28_12-59-31.254685,"99.74,78.82"
2024-05-28_12-59-31.287429,"80.01,54.52"
2024-05-28_12-59-31.320049,"97.78,54.54"
2024-05-28_12-59-31.352763,"98.78,52.08"
2024-05-28_12-59-31.381609,"70.57,53.92"
2024-05-28_12-59-31.414331,"61.55,58.96"
2024-05-28_12-59-31.447116,"80.12,81.02"
2024-05-28_12-59-31.479854,"66.55,91.93"
2024-05-28_12-59-31.512638,"80.52,80.92"
2024-05-28_12-59-31.545351,"87.77,82.20"
2024-05-28_12-59-31.578044,"100.20,91.12"
2024-05-28_12-59-31.606828,"81.71,74.26"
2024-05-28_12-59-31.639655,"106.43,68.04"
2024-05-28_12-59-31.672458,"87.97,57.84"
2024-05-28_12-59-31.705157,"104.41,47.22"
2024-05-28_12-59-31.737901,"80.00,58.92"
2024-05-28_12-59-31.770637,"54.74,58.35"
2024-05-28_12-59-31.803322,"76.49,82.70"
2024-05-28_12-59-31.832131,"75.39,89.65"
2024-05-28_12-59-31.864929,"74.68,79.26"
2024-05-28_12-59-31.897663,"76.04,97.63"
2024-05-28_12-59-31.930403,"93.24,74.38"
2024-05-28_12-59-31.967478,"93.02,85.97"
2024-05-28_12-59-31.995989,"92.39,59.55"
2024-05-28_12-59-32.028751,"94.65,54.41"
2024-05-28_12-59-32.057471,"91.72,55.95"
2024-05-28_12-59-32.091116,"72.72,54.56"
2024-05-28_12-59-32.123032,"67.54,53.11"
2024-05-28_12-59-32.156014,"81.79,72.91"
2024-05-28_12-59-32.188520,"70.60,88.89"
2024-05-28_12-59-32.221194,"83.27,85.24"
2024-05-28_12-59-32.253884,"83.52,84.64"
2024-05-28_12-59-32.282684,"89.01,88.64"
2024-05-28_12-59-32.315450,"100.41,81.55"
2024-05-28_12-59-32.348170,"96.59,55.11"
2024-05-28_12-59-32.380932,"108.22,53.79"
2024-05-28_12-59-32.413684,"99.87,57.20"
2024-05-28_12-59-32.446434,"75.91,47.48"
2024-05-28_12-59-32.479144,"69.71,59.27"
2024-05-28_12-59-32.507928,"80.90,58.98"
2024-05-28_12-59-32.540677,"63.60,77.17"
2024-05-28_12-59-32.573424,"87.03,85.11"
2024-05-28_12-59-32.606224,"81.18,85.25"
2024-05-28_12-59-32.638990,"98.43,85.70"
2024-05-28_12-59-32.671704,"91.80,74.96"
2024-05-28_12-59-32.704419,"99.31,68.55"
2024-05-28_12-59-32.733197,"106.69,57.03"
2024-05-28_12-59-32.766107,"92.01,54.28"
2024-05-28_12-59-32.798803,"85.49,55.06"
2024-05-28_12-59-32.831594,"76.62,55.57"
2024-05-28_12-59-32.864313,"81.60,53.53"
2024-05-28_12-59-32.897018,"71.65,80.88"
2024-05-28_12-59-32.929696,"83.49,80.80"
2024-05-28_12-59-32.958437,"84.57,82.21"
2024-05-28_12-59-32.991203,"84.67,81.84"
2024-05-28_12-59-33.023987,"102.72,78.54"
2024-05-28_12-59-33.056728,"110.37,69.84"
2024-05-28_12-59-33.089545,"88.77,54.43"
2024-05-28_12-59-33.122322,"105.69,53.86"
2024-05-28_12-59-33.155031,"85.98,56.77"
2024-05-28_12-59-33.183729,"66.30,50.19"
2024-05-28_12-59-33.216466,"79.20,59.02"
2024-05-28_12-59-33.249240,"69.36,62.41"
2024-05-28_12-59-33.282123,"78.14,87.35"
2024-05-28_12-59-33.314831,"86.24,84.46"
2024-05-28_12-59-33.347579,"73.55,85.85"
2024-05-28_12-59-33.380253,"94.62,91.41"
2024-05-28_12-59-33.408981,"93.78,69.50"
2024-05-28_12-59-33.441759,"101.34,52.88"
2024-05-28_12-59-33.474512,"110.14,57.26"
2024-05-28_12-59-33.507305,"77.08,55.17"
2024-05-28_12-59-33.540088,"70.56,55.73"
2024-05-28_12-59-33.572838,"71.68,56.49"
2024-05-28_12-59-33.605532,"70.77,92.10"
2024-05-28_12-59-33.634260,"83.20,91.30"
2024-05-28_12-59-33.667067,"85.30,92.03"
2024-05-28_12-59-33.699796,"89.59,82.15"
2024-05-28_12-59-33.732549,"93.41,81.22"
2024-05-28_12-59-33.765350,"101.58,64.69"
2024-05-28_12-59-33.798121,"112.28,57.62"
2024-05-28_12-59-33.830856,"93.68,54.69"
2024-05-28_12-59-33.859564,"88.48,54.74"
2024-05-28_12-59-33.892255,"60.89,58.70"
2024-05-28_12-59-33.925045,"76.40,49.91"
2024-05-28_12-59-33.957793,"60.23,85.48"
2024-05-28_12-59-33.990672,"81.12,80.97"
2024-05-28_12-59-34.023348,"86.80,83.28"
2024-05-28_12-59-34.056080,"93.74,84.86"
2024-05-28_12-59-34.088805,"86.07,81.52"
2024-05-28_12-59-34.117612,"102.49,68.12"
2024-05-28_12-59-34.150353,"98.43,51.90"
2024-05-28_12-59-34.183177,"93.61,53.66"
2024-05-28_12-59-34.215881,"85.26,58.97"
2024-05-28_12-59-34.248628,"62.00,57.42"
2024-05-28_12-59-34.281659,"75.80,81.02"
2024-05-28_12-59-34.314138,"75.39,70.69"
2024-05-28_12-59-34.342882,"75.95,87.99"
2024-05-28_12-59-34.375713,"91.85,103.77"
2024-05-28_12-59-34.408486,"84.61,79.00"
2024-05-28_12-59-34.441175,"95.21,87.53"
2024-05-28_12-59-34.473979,"100.83,58.09"
2024-05-28_12-59-34.506678,"88.09,47.71"
2024-05-28_12-59-34.539528,"113.34,57.79"
2024-05-28_12-59-34.568124,"71.23,56.31"
2024-05-28_12-59-34.600930,"72.09,55.34"
2024-05-28_12-59-34.633676,"71.41,56.08"
2024-05-28_12-59-34.666436,"72.62,80.23"
2024-05-28_12-59-34.699224,"82.37,92.29"
2024-05-28_12-59-34.731886,"73.65,88.12"
2024-05-28_12-59-34.764590,"89.85,81.41"
2024-05-28_12-59-34.793419,"105.61,71.27"
2024-05-28_12-59-34.826505,"91.99,70.12"
2024-05-28_12-59-34.858937,"86.21,54.86"
2024-05-28_12-59-34.891636,"96.49,51.68"
2024-05-28_12-59-34.924416,"75.70,53.76"
2024-05-28_12-59-34.957163,"62.15,59.40"
2024-05-28_12-59-34.989848,"85.36,58.37"
2024-05-28_12-59-35.018669,"63.72,75.79"
2024-05-28_12-59-35.051435,"80.48,79.88"
2024-05-28_12-59-35.084495,"82.32,84.12"
2024-05-28_12-59-35.116942,"99.35,90.12"
2024-05-28_12-59-35.149693,"82.45,76.33"
2024-05-28_12-59-35.182454,"105.35,67.98"
2024-05-28_12-59-35.215156,"97.92,57.12"
2024-05-28_12-59-35.243899,"109.05,46.97"
2024-05-28_12-59-35.276652,"82.47,58.30"
2024-05-28_12-59-35.309486,"56.43,57.55"
2024-05-28_12-59-35.342320,"74.81,56.28"
2024-05-28_12-59-35.375611,"70.86,83.08"
2024-05-28_12-59-35.408375,"77.90,95.99"
2024-05-28_12-59-35.440702,"82.33,95.13"
2024-05-28_12-59-35.469218,"82.81,75.71"
2024-05-28_12-59-35.502065,"94.15,77.65"
2024-05-28_12-59-35.534859,"90.72,58.30"
2024-05-28_12-59-35.567674,"99.18,54.62"
2024-05-28_12-59-35.600296,"91.64,55.42"
2024-05-28_12-59-35.632993,"73.31,54.18"
2024-05-28_12-59-35.665692,"65.37,54.93"
2024-05-28_12-59-35.694476,"83.28,58.05"
2024-05-28_12-59-35.727248,"71.93,87.12"
2024-05-28_12-59-35.759976,"77.76,88.66"
2024-05-28_12-59-35.792924,"77.36,82.25"
2024-05-28_12-59-35.825624,"87.37,90.25"
2024-05-28_12-59-35.858320,"98.84,69.46"
2024-05-28_12-59-35.891004,"88.14,54.92"
2024-05-28_12-59-35.919702,"107.57,53.66"
2024-05-28_12-59-35.952719,"95.38,57.23"
2024-05-28_12-59-35.985399,"71.95,48.72"
2024-05-28_12-59-36.018069,"68.52,59.37"
2024-05-28_12-59-36.050791,"75.58,85.75"
2024-05-28_12-59-36.083515,"70.89,91.68"
2024-05-28_12-59-36.116257,"89.22,85.84"
2024-05-28_12-59-36.144959,"83.80,88.23"
2024-05-28_12-59-36.177728,"101.68,84.51"
2024-05-28_12-59-36.210512,"97.43,70.27"
2024-05-28_12-59-36.243335,"99.33,52.93"
2024-05-28_12-59-36.276052,"105.22,57.52"
2024-05-28_12-59-36.308790,"88.43,54.67"
2024-05-28_12-59-36.341537,"72.90,55.41"
2024-05-28_12-59-36.370309,"75.59,55.92"
2024-05-28_12-59-36.406139,"75.32,53.10"
2024-05-28_12-59-36.444882,"73.77,96.11"
2024-05-28_12-59-36.468605,"71.27,84.94"
2024-05-28_12-59-36.501319,"76.60,89.11"
2024-05-28_12-59-36.534158,"82.99,84.73"
2024-05-28_12-59-36.566793,"101.61,78.15"
2024-05-28_12-59-36.599486,"112.76,57.66"
2024-05-28_12-59-36.628324,"95.41,54.77"
2024-05-28_12-59-36.661071,"94.42,54.02"
2024-05-28_12-59-36.693790,"62.55,58.87"
2024-05-28_12-59-36.726598,"77.36,49.22"
2024-05-28_12-59-36.759441,"61.93,98.15"
2024-05-28_12-59-36.792037,"78.41,81.99"
2024-05-28_12-59-36.820792,"85.32,82.95"
2024-05-28_12-59-36.853579,"93.28,80.47"
2024-05-28_12-59-36.886339,"91.53,80.25"
2024-05-28_12-59-36.919093,"105.63,68.96"
2024-05-28_12-59-36.951829,"97.79,51.53"
2024-05-28_12-59-36.984630,"94.85,53.51"
2024-05-28_12-59-37.017421,"83.32,58.76"
2024-05-28_12-59-37.050040,"62.33,57.41"
2024-05-28_12-59-37.078852,"76.63,77.98"
2024-05-28_12-59-37.111613,"68.03,83.94"
2024-05-28_12-59-37.144314,"94.30,86.17"
2024-05-28_12-59-37.177136,"79.96,97.00"
2024-05-28_12-59-37.209900,"77.47,77.63"
2024-05-28_12-59-37.242715,"99.50,80.06"
2024-05-28_12-59-37.275308,"93.46,57.69"
2024-05-28_12-59-37.304091,"98.26,47.09"
2024-05-28_12-59-37.336851,"108.17,56.90"
2024-05-28_12-59-37.369718,"62.31,57.00"
2024-05-28_12-59-37.402637,"72.11,53.38"
2024-05-28_12-59-37.435177,"81.56,91.82"
2024-05-28_12-59-37.467962,"76.49,80.60"
2024-05-28_12-59-37.524081,"75.48,95.68"
2024-05-28_12-59-37.529936,"78.33,87.38"
2024-05-28_12-59-37.633018,"71.30,91.15"
2024-05-28_12-59-37.633630,"100.35,61.07"
2024-05-28_12-59-37.633784,"85.37,55.10"
2024-05-28_12-59-37.660791,"84.35,56.62"
2024-05-28_12-59-37.693216,"83.75,53.14"
2024-05-28_12-59-37.725883,"66.50,56.53"
2024-05-28_12-59-37.754673,"73.62,60.91"
2024-05-28_12-59-37.787446,"73.91,84.33"
2024-05-28_12-59-37.820231,"74.05,90.16"
2024-05-28_12-59-37.852974,"80.23,88.41"
2024-05-28_12-59-37.885732,"85.76,87.96"
2024-05-28_12-59-37.918434,"107.38,77.58"
2024-05-28_12-59-37.951104,"91.96,55.46"
2024-05-28_12-59-37.979892,"107.41,53.54"
2024-05-28_12-59-38.012651,"100.21,56.92"
2024-05-28_12-59-38.045757,"76.87,47.77"
2024-05-28_12-59-38.078254,"68.46,59.50"
2024-05-28_12-59-38.110958,"80.40,84.65"
2024-05-28_12-59-38.143699,"66.47,76.13"
2024-05-28_12-59-38.176372,"87.56,85.29"
2024-05-28_12-59-38.205195,"82.09,82.08"
2024-05-28_12-59-38.238092,"97.30,85.32"
2024-05-28_12-59-38.270884,"90.88,81.76"
2024-05-28_12-59-38.303483,"76.44,54.15"
2024-05-28_12-59-38.336323,"81.24,58.85"
2024-05-28_12-59-38.368999,"92.60,54.94"
2024-05-28_12-59-38.401682,"84.67,55.17"
2024-05-28_12-59-38.430496,"83.11,55.69"
2024-05-28_12-59-38.463257,"73.75,93.45"
2024-05-28_12-59-38.496191,"69.27,98.53"
2024-05-28_12-59-38.530021,"74.57,90.23"
2024-05-28_12-59-38.561789,"67.70,92.10"
2024-05-28_12-59-38.596454,"77.66,71.54"
2024-05-28_12-59-38.627162,"93.26,55.23"
2024-05-28_12-59-38.656049,"101.58,58.51"
2024-05-28_12-59-38.688703,"77.83,55.08"
2024-05-28_12-59-38.721343,"72.55,56.78"
2024-05-28_12-59-38.754108,"78.12,65.23"
2024-05-28_12-59-38.786854,"90.84,85.08"
2024-05-28_12-59-38.819506,"61.26,83.92"
2024-05-28_12-59-38.852591,"76.97,83.67"
2024-05-28_12-59-38.881105,"67.05,95.40"
2024-05-28_12-59-38.913749,"89.94,80.52"
2024-05-28_12-59-38.946543,"87.24,86.12"
2024-05-28_12-59-38.979285,"105.34,68.89"
2024-05-28_12-59-39.012047,"88.16,51.43"
2024-05-28_12-59-39.044724,"91.74,54.75"
2024-05-28_12-59-39.080661,"81.05,60.03"
2024-05-28_12-59-39.106525,"62.75,57.59"
2024-05-28_12-59-39.139068,"76.70,61.48"
2024-05-28_12-59-39.171857,"67.46,82.69"
2024-05-28_12-59-39.204527,"82.97,86.15"
2024-05-28_12-59-39.237324,"84.49,95.87"
2024-05-28_12-59-39.270045,"77.26,77.84"
2024-05-28_12-59-39.302729,"100.09,80.48"
2024-05-28_12-59-39.331465,"99.08,57.11"
2024-05-28_12-59-39.364261,"98.77,47.17"
2024-05-28_12-59-39.397014,"103.43,56.70"
2024-05-28_12-59-39.429784,"61.15,56.43"
2024-05-28_12-59-39.462575,"69.80,53.97"
2024-05-28_12-59-39.495761,"79.76,94.77"
2024-05-28_12-59-39.528044,"75.80,83.60"
2024-05-28_12-59-39.556853,"82.25,93.76"
2024-05-28_12-59-39.589547,"85.73,85.86"
2024-05-28_12-59-39.622357,"100.26,80.35"
2024-05-28_12-59-39.655067,"106.57,73.32"
2024-05-28_12-59-39.687885,"94.57,53.81"
2024-05-28_12-59-39.720602,"104.14,54.06"
2024-05-28_12-59-39.753306,"84.17,53.04"
2024-05-28_12-59-39.782001,"65.46,54.76"
2024-05-28_12-59-39.814797,"72.19,73.90"
2024-05-28_12-59-39.847607,"70.03,91.41"
2024-05-28_12-59-39.880313,"81.11,86.45"
2024-05-28_12-59-39.913110,"70.37,85.74"
2024-05-28_12-59-39.945847,"92.45,87.22"
2024-05-28_12-59-39.978598,"101.93,80.40"
2024-05-28_12-59-40.007293,"89.22,54.26"
2024-05-28_12-59-40.040072,"108.96,53.64"
2024-05-28_12-59-40.072811,"95.77,57.24"
2024-05-28_12-59-40.105697,"75.10,48.32"
2024-05-28_12-59-40.138410,"69.06,59.10"
2024-05-28_12-59-40.171139,"76.11,84.36"
2024-05-28_12-59-40.203821,"72.90,91.42"
2024-05-28_12-59-40.232584,"90.46,83.92"
2024-05-28_12-59-40.265353,"83.40,87.50"
2024-05-28_12-59-40.298127,"92.80,88.99"
2024-05-28_12-59-40.330874,"99.37,70.38"
2024-05-28_12-59-40.363913,"99.10,53.17"
2024-05-28_12-59-40.397164,"79.80,58.93"
2024-05-28_12-59-40.432864,"73.45,56.15"
2024-05-28_12-59-40.459115,"77.53,56.45"
2024-05-28_12-59-40.491892,"77.23,55.95"
2024-05-28_12-59-40.524354,"71.82,67.87"
2024-05-28_12-59-40.558375,"63.43,91.39"
2024-05-28_12-59-40.589006,"83.26,89.18"
2024-05-28_12-59-40.621752,"85.79,84.65"
2024-05-28_12-59-40.654430,"87.73,75.78"
2024-05-28_12-59-40.683177,"95.57,65.59"
2024-05-28_12-59-40.715919,"103.87,57.83"
2024-05-28_12-59-40.749114,"87.01,55.04"
2024-05-28_12-59-40.781544,"86.17,55.35"
2024-05-28_12-59-40.814724,"66.32,58.96"
2024-05-28_12-59-40.847097,"85.42,73.92"
2024-05-28_12-59-40.879718,"66.03,98.20"
2024-05-28_12-59-40.912333,"83.23,80.65"
2024-05-28_12-59-40.941206,"88.62,84.41"
2024-05-28_12-59-40.973942,"95.08,83.08"
2024-05-28_12-59-41.006711,"91.78,70.57"
2024-05-28_12-59-41.039511,"107.30,53.90"
2024-05-28_12-59-41.072367,"105.49,51.50"
2024-05-28_12-59-41.104918,"85.12,54.05"
2024-05-28_12-59-41.137595,"68.58,58.37"
2024-05-28_12-59-41.166441,"87.04,57.96"
2024-05-28_12-59-41.199371,"63.28,76.90"
2024-05-28_12-59-41.232029,"78.14,80.98"
2024-05-28_12-59-41.265005,"81.50,95.76"
2024-05-28_12-59-41.297670,"99.30,86.04"
2024-05-28_12-59-41.330222,"89.07,82.69"
2024-05-28_12-59-41.362892,"105.57,52.56"
2024-05-28_12-59-41.391704,"99.90,57.48"
2024-05-28_12-59-41.424742,"101.53,47.38"
2024-05-28_12-59-41.457273,"81.49,58.94"
2024-05-28_12-59-41.490152,"71.83,58.02"
2024-05-28_12-59-41.522820,"73.35,56.20"
2024-05-28_12-59-41.555510,"76.41,90.68"
2024-05-28_12-59-41.588172,"74.33,90.45"
2024-05-28_12-59-41.616946,"97.95,89.30"
2024-05-28_12-59-41.649730,"94.87,81.55"
2024-05-28_12-59-41.682498,"94.63,68.17"
2024-05-28_12-59-41.715234,"107.97,57.72"
2024-05-28_12-59-41.748048,"95.87,54.12"
2024-05-28_12-59-41.780749,"83.54,55.34"
2024-05-28_12-59-41.813442,"62.20,56.14"
2024-05-28_12-59-41.842198,"77.93,81.80"
2024-05-28_12-59-41.875056,"73.63,92.13"
2024-05-28_12-59-41.907734,"69.56,84.25"
2024-05-28_12-59-41.940537,"85.49,89.62"
2024-05-28_12-59-41.973279,"82.74,78.42"
2024-05-28_12-59-42.006024,"97.27,78.96"
2024-05-28_12-59-42.038758,"111.40,57.02"
2024-05-28_12-59-42.068479,"87.00,55.07"
2024-05-28_12-59-42.100272,"90.11,55.15"
2024-05-28_12-59-42.133038,"66.35,58.64"
2024-05-28_12-59-42.165808,"78.49,49.99"
2024-05-28_12-59-42.198627,"60.86,98.93"
2024-05-28_12-59-42.231272,"79.14,81.49"
2024-05-28_12-59-42.263957,"86.25,84.42"
2024-05-28_12-59-42.292746,"93.22,84.14"
2024-05-28_12-59-42.325538,"87.79,83.94"
2024-05-28_12-59-42.358277,"105.30,68.61"
2024-05-28_12-59-42.391044,"96.99,51.90"
2024-05-28_12-59-42.423853,"96.30,53.96"
2024-05-28_12-59-42.456594,"85.81,59.05"
2024-05-28_12-59-42.489251,"62.31,58.45"
2024-05-28_12-59-42.518010,"74.38,80.06"
2024-05-28_12-59-42.550783,"69.26,81.60"
2024-05-28_12-59-42.583586,"82.34,86.51"
2024-05-28_12-59-42.616280,"94.87,90.59"
2024-05-28_12-59-42.649055,"81.63,78.77"
2024-05-28_12-59-42.681818,"104.60,80.95"
2024-05-28_12-59-42.714570,"97.88,57.59"
2024-05-28_12-59-42.743469,"107.13,47.44"
2024-05-28_12-59-42.776099,"98.81,57.77"
2024-05-28_12-59-42.808917,"57.78,57.82"
2024-05-28_12-59-42.841732,"71.29,52.99"
2024-05-28_12-59-42.874352,"75.36,72.17"
2024-05-28_12-59-42.907090,"82.68,80.23"
2024-05-28_12-59-42.939768,"87.23,89.90"
2024-05-28_12-59-42.969348,"91.59,75.40"
2024-05-28_12-59-43.001439,"93.79,77.66"
2024-05-28_12-59-43.034098,"103.78,57.66"
2024-05-28_12-59-43.067482,"93.75,54.03"
2024-05-28_12-59-43.099972,"105.39,54.67"
2024-05-28_12-59-43.132416,"79.02,53.87"
2024-05-28_12-59-43.165083,"75.93,54.57"
2024-05-28_12-59-43.193845,"77.25,89.89"
2024-05-28_12-59-43.226569,"80.77,83.00"
2024-05-28_12-59-43.259410,"90.04,87.43"
2024-05-28_12-59-43.292143,"79.99,79.75"
2024-05-28_12-59-43.325066,"95.80,79.14"
2024-05-28_12-59-43.360356,"90.77,58.68"
2024-05-28_12-59-43.390565,"81.11,55.07"
2024-05-28_12-59-43.419123,"84.01,57.62"
2024-05-28_12-59-43.451911,"77.91,58.10"
2024-05-28_12-59-43.484671,"65.84,52.26"
2024-05-28_12-59-43.517444,"71.35,62.15"
2024-05-28_12-59-43.550190,"71.68,82.62"
2024-05-28_12-59-43.582961,"74.71,91.95"
2024-05-28_12-59-43.615676,"84.63,82.63"
2024-05-28_12-59-43.644398,"83.36,86.13"
2024-05-28_12-59-43.677137,"102.85,68.66"
2024-05-28_12-59-43.709892,"98.81,51.93"
2024-05-28_12-59-43.742744,"86.77,54.22"
2024-05-28_12-59-43.775434,"87.47,59.31"
2024-05-28_12-59-43.808256,"63.04,58.07"
2024-05-28_12-59-43.840871,"73.98,56.06"
2024-05-28_12-59-43.869702,"68.27,82.70"
2024-05-28_12-59-43.902362,"84.86,86.09"
2024-05-28_12-59-43.935148,"95.78,90.99"
2024-05-28_12-59-43.968124,"87.87,81.58"
2024-05-28_12-59-44.001120,"98.85,68.31"
2024-05-28_12-59-44.033507,"75.96,58.50"
2024-05-28_12-59-44.066166,"90.94,48.21"
2024-05-28_12-59-44.094929,"94.61,58.80"
2024-05-28_12-59-44.127682,"56.34,57.80"
2024-05-28_12-59-44.160413,"79.64,55.39"
2024-05-28_12-59-44.193218,"75.74,76.95"
2024-05-28_12-59-44.225978,"84.14,79.68"
2024-05-28_12-59-44.258739,"82.67,98.72"
2024-05-28_12-59-44.291455,"93.34,74.99"
2024-05-28_12-59-44.320168,"95.77,78.22"
2024-05-28_12-59-44.352929,"102.86,57.44"
2024-05-28_12-59-44.385834,"94.19,53.99"
2024-05-28_12-59-44.418601,"100.83,55.07"
2024-05-28_12-59-44.451303,"75.44,53.73"
2024-05-28_12-59-44.484070,"74.36,53.99"
2024-05-28_12-59-44.516738,"73.86,81.93"
2024-05-28_12-59-44.549401,"81.56,81.46"
2024-05-28_12-59-44.578251,"84.95,82.27"
2024-05-28_12-59-44.611585,"89.90,76.98"
2024-05-28_12-59-44.643746,"102.83,77.32"
2024-05-28_12-59-44.676540,"107.97,57.68"
2024-05-28_12-59-44.709309,"89.53,54.75"
2024-05-28_12-59-44.742005,"103.48,54.34"
2024-05-28_12-59-44.774685,"66.38,58.84"
2024-05-28_12-59-44.803456,"77.70,51.25"
2024-05-28_12-59-44.836267,"63.18,103.73"
2024-05-28_12-59-44.868996,"79.00,81.03"
2024-05-28_12-59-44.901791,"86.38,84.75"
2024-05-28_12-59-44.934572,"94.80,81.94"
2024-05-28_12-59-44.967308,"90.46,86.09"
2024-05-28_12-59-44.999982,"105.95,68.89"
2024-05-28_12-59-45.028734,"97.68,51.56"
2024-05-28_12-59-45.061505,"98.37,53.68"
2024-05-28_12-59-45.094286,"74.55,60.50"
2024-05-28_12-59-45.127240,"76.20,57.97"
2024-05-28_12-59-45.159853,"65.63,100.25"
2024-05-28_12-59-45.192716,"75.65,81.67"
2024-05-28_12-59-45.225231,"84.11,85.82"
2024-05-28_12-59-45.254021,"98.02,91.58"
2024-05-28_12-59-45.286759,"83.59,76.38"
2024-05-28_12-59-45.319588,"106.29,68.34"
2024-05-28_12-59-45.352368,"97.83,57.26"
2024-05-28_12-59-45.385144,"97.80,47.19"
2024-05-28_12-59-45.417792,"85.48,58.55"
2024-05-28_12-59-45.450535,"57.89,57.43"
2024-05-28_12-59-45.479325,"73.25,75.53"
2024-05-28_12-59-45.512072,"80.21,87.64"
2024-05-28_12-59-45.544833,"76.24,88.10"
2024-05-28_12-59-45.577651,"93.27,88.43"
2024-05-28_12-59-45.610391,"88.72,75.58"
2024-05-28_12-59-45.643105,"93.39,53.83"
2024-05-28_12-59-45.675786,"106.45,57.34"
2024-05-28_12-59-45.704589,"96.16,54.27"
2024-05-28_12-59-45.737340,"80.40,54.70"
2024-05-28_12-59-45.770059,"61.45,55.96"
2024-05-28_12-59-45.802814,"77.78,77.51"
2024-05-28_12-59-45.835596,"75.42,94.27"
2024-05-28_12-59-45.868323,"83.96,81.22"
2024-05-28_12-59-45.901068,"87.85,82.73"
2024-05-28_12-59-45.929842,"92.37,82.79"
2024-05-28_12-59-45.962651,"102.54,78.70"
2024-05-28_12-59-45.995350,"112.90,57.16"
2024-05-28_12-59-46.028101,"92.73,54.72"
2024-05-28_12-59-46.060843,"87.86,54.38"
2024-05-28_12-59-46.093832,"60.42,59.67"
2024-05-28_12-59-46.126340,"84.89,76.25"
2024-05-28_12-59-46.155102,"69.55,96.69"
2024-05-28_12-59-46.188486,"82.66,80.43"
2024-05-28_12-59-46.220623,"83.43,86.55"
2024-05-28_12-59-46.253370,"95.19,77.50"
2024-05-28_12-59-46.286150,"95.05,82.35"
2024-05-28_12-59-46.318889,"107.26,53.58"
2024-05-28_12-59-46.351640,"105.29,51.85"
2024-05-28_12-59-46.380331,"85.71,53.86"
2024-05-28_12-59-46.414455,"64.83,60.38"
2024-05-28_12-59-46.445927,"86.24,87.45"
2024-05-28_12-59-46.478670,"68.03,84.84"
2024-05-28_12-59-46.511407,"80.09,82.20"
2024-05-28_12-59-46.544219,"83.89,96.96"
2024-05-28_12-59-46.576874,"83.48,84.61"
2024-05-28_12-59-46.605583,"86.16,56.21"
2024-05-28_12-59-46.638391,"107.97,52.67"
2024-05-28_12-59-46.671222,"97.99,56.94"
2024-05-28_12-59-46.703912,"90.74,47.37"
2024-05-28_12-59-46.736711,"77.81,57.96"
2024-05-28_12-59-46.769491,"69.91,57.42"
2024-05-28_12-59-46.802123,"64.23,79.41"
2024-05-28_12-59-46.830858,"88.97,83.58"
2024-05-28_12-59-46.865482,"83.02,80.82"
2024-05-28_12-59-46.896424,"98.21,85.64"
2024-05-28_12-59-46.929216,"95.32,55.72"
2024-05-28_12-59-46.961972,"97.55,53.84"
2024-05-28_12-59-46.994700,"104.40,57.74"
2024-05-28_12-59-47.027414,"84.37,55.25"
2024-05-28_12-59-47.056286,"70.50,55.85"
2024-05-28_12-59-47.089112,"74.04,56.57"
2024-05-28_12-59-47.121702,"70.56,93.43"
2024-05-28_12-59-47.154443,"83.57,91.23"
2024-05-28_12-59-47.187199,"84.04,84.40"
2024-05-28_12-59-47.220033,"91.22,80.21"
2024-05-28_12-59-47.252701,"93.54,73.44"
2024-05-28_12-59-47.285377,"97.20,47.24"
2024-05-28_12-59-47.314232,"110.27,56.93"
2024-05-28_12-59-47.346952,"83.43,55.39"
2024-05-28_12-59-47.379709,"74.48,55.14"
2024-05-28_12-59-47.412530,"72.40,69.63"
2024-05-28_12-59-47.445253,"73.13,84.42"
2024-05-28_12-59-47.478036,"82.06,92.30"
2024-05-28_12-59-47.510707,"85.18,82.50"
2024-05-28_12-59-47.543861,"85.68,81.90"
2024-05-28_12-59-47.575216,"81.40,63.17"
2024-05-28_12-59-47.605185,"84.72,55.33"
2024-05-28_12-59-47.637848,"95.69,55.14"
2024-05-28_12-59-47.670605,"81.06,52.90"
2024-05-28_12-59-47.703228,"69.74,54.33"
2024-05-28_12-59-47.735947,"73.18,77.58"
2024-05-28_12-59-47.764774,"72.41,87.60"
2024-05-28_12-59-47.797538,"76.86,88.76"
2024-05-28_12-59-47.830274,"90.90,82.07"
2024-05-28_12-59-47.863057,"91.01,81.35"
2024-05-28_12-59-47.895788,"106.58,84.00"
2024-05-28_12-59-47.928565,"87.96,54.25"
2024-05-28_12-59-47.961226,"108.07,53.59"
2024-05-28_12-59-47.989993,"95.80,57.31"
2024-05-28_12-59-48.022733,"66.95,50.03"
2024-05-28_12-59-48.055644,"77.71,77.81"
2024-05-28_12-59-48.088293,"68.34,75.99"
2024-05-28_12-59-48.122000,"81.54,87.56"
2024-05-28_12-59-48.154155,"80.27,85.05"
2024-05-28_12-59-48.187481,"79.86,89.57"
2024-05-28_12-59-48.216134,"90.46,58.19"
2024-05-28_12-59-48.248078,"99.26,51.70"
2024-05-28_12-59-48.280807,"98.14,53.74"
2024-05-28_12-59-48.313598,"92.82,58.66"
2024-05-28_12-59-48.346338,"64.20,57.13"
2024-05-28_12-59-48.379028,"76.05,80.31"
2024-05-28_12-59-48.411714,"68.23,76.01"
2024-05-28_12-59-48.440548,"84.89,85.61"
2024-05-28_12-59-48.473419,"95.02,91.09"
2024-05-28_12-59-48.506113,"81.82,74.03"
2024-05-28_12-59-48.538882,"101.66,69.30"
2024-05-28_12-59-48.571573,"98.98,57.78"
2024-05-28_12-59-48.604347,"103.95,47.42"
2024-05-28_12-59-48.637006,"86.10,59.62"
2024-05-28_12-59-48.665778,"56.99,58.03"
2024-05-28_12-59-48.698599,"74.18,59.47"
2024-05-28_12-59-48.731297,"75.64,88.53"
2024-05-28_12-59-48.764104,"76.51,78.84"
2024-05-28_12-59-48.796866,"94.99,89.44"
2024-05-28_12-59-48.829604,"95.73,72.68"
2024-05-28_12-59-48.862311,"94.92,68.63"
2024-05-28_12-59-48.891174,"106.61,57.32"
2024-05-28_12-59-48.923832,"95.21,54.38"
2024-05-28_12-59-48.956817,"82.87,55.25"
2024-05-28_12-59-48.989352,"65.56,55.19"
2024-05-28_12-59-49.022173,"76.84,75.95"
2024-05-28_12-59-49.054887,"73.00,95.26"
2024-05-28_12-59-49.087589,"83.84,89.94"
2024-05-28_12-59-49.116334,"88.02,81.00"
2024-05-28_12-59-49.149054,"98.76,76.08"
2024-05-28_12-59-49.181842,"96.56,64.71"
2024-05-28_12-59-49.214701,"113.23,57.79"
2024-05-28_12-59-49.247379,"87.20,54.97"
2024-05-28_12-59-49.280150,"80.13,55.55"
2024-05-28_12-59-49.312863,"59.99,59.41"
2024-05-28_12-59-49.341605,"80.70,53.75"
2024-05-28_12-59-49.374449,"71.13,95.84"
2024-05-28_12-59-49.407140,"81.26,87.23"
2024-05-28_12-59-49.439884,"86.51,81.65"
2024-05-28_12-59-49.472673,"105.06,73.92"
2024-05-28_12-59-49.505420,"93.39,69.99"
2024-05-28_12-59-49.538134,"109.07,54.10"
2024-05-28_12-59-49.566832,"97.07,52.20"
2024-05-28_12-59-49.599607,"71.26,55.23"
2024-05-28_12-59-49.632393,"61.81,60.50"
2024-05-28_12-59-49.665140,"78.59,65.04"
2024-05-28_12-59-49.697977,"72.29,90.33"
2024-05-28_12-59-49.730692,"77.64,84.66"
2024-05-28_12-59-49.763412,"89.16,88.28"
2024-05-28_12-59-49.796111,"102.43,82.04"
2024-05-28_12-59-49.824886,"88.66,54.87"
2024-05-28_12-59-49.857683,"106.43,53.81"
2024-05-28_12-59-49.890426,"101.24,57.14"
2024-05-28_12-59-49.923203,"68.38,49.43"
2024-05-28_12-59-49.956005,"81.06,60.64"
2024-05-28_12-59-49.988691,"71.27,63.57"
2024-05-28_12-59-50.017373,"79.29,88.37"
2024-05-28_12-59-50.050168,"91.09,89.36"
2024-05-28_12-59-50.082919,"83.35,83.42"
2024-05-28_12-59-50.115704,"103.25,82.65"
2024-05-28_12-59-50.148455,"98.42,52.15"
2024-05-28_12-59-50.181239,"98.75,53.63"
2024-05-28_12-59-50.213963,"98.42,58.60"
2024-05-28_12-59-50.246685,"61.18,57.57"
2024-05-28_12-59-50.275480,"78.82,54.81"
2024-05-28_12-59-50.308225,"68.16,81.69"
2024-05-28_12-59-50.340961,"81.83,86.36"
2024-05-28_12-59-50.373845,"93.80,90.84"
2024-05-28_12-59-50.406810,"85.09,82.81"
2024-05-28_12-59-50.440459,"100.52,69.56"
2024-05-28_12-59-50.475153,"75.67,58.29"
2024-05-28_12-59-50.500942,"82.84,48.15"
2024-05-28_12-59-50.539110,"84.72,59.59"
2024-05-28_12-59-50.566294,"59.46,56.91"
2024-05-28_12-59-50.599065,"74.86,56.09"
2024-05-28_12-59-50.631833,"77.40,88.10"
2024-05-28_12-59-50.664561,"76.97,86.72"
2024-05-28_12-59-50.697174,"95.90,85.99"
2024-05-28_12-59-50.726046,"90.64,75.36"
2024-05-28_12-59-50.758792,"97.29,68.86"
2024-05-28_12-59-50.791745,"97.14,58.21"
2024-05-28_12-59-50.824293,"90.07,54.86"
2024-05-28_12-59-50.857055,"76.91,56.05"
2024-05-28_12-59-50.889771,"76.77,56.50"
2024-05-28_12-59-50.922545,"75.76,54.10"
2024-05-28_12-59-50.951211,"82.78,92.03"
2024-05-28_12-59-50.984012,"82.88,85.77"
2024-05-28_12-59-51.016771,"88.53,81.62"
2024-05-28_12-59-51.049618,"96.37,71.37"
2024-05-28_12-59-51.082396,"99.68,65.29"
2024-05-28_12-59-51.115074,"100.66,57.46"
2024-05-28_12-59-51.147805,"84.38,55.50"
2024-05-28_12-59-51.176554,"78.21,55.46"
2024-05-28_12-59-51.209376,"77.29,55.89"
2024-05-28_12-59-51.242107,"72.77,79.47"
2024-05-28_12-59-51.274882,"77.16,95.19"
2024-05-28_12-59-51.307662,"81.96,87.43"
2024-05-28_12-59-51.340347,"82.40,86.17"
2024-05-28_12-59-51.373058,"105.06,73.96"
2024-05-28_12-59-51.401822,"94.11,54.17"
2024-05-28_12-59-51.434603,"104.51,54.38"
2024-05-28_12-59-51.467369,"86.98,53.29"
2024-05-28_12-59-51.500121,"71.83,53.92"
2024-05-28_12-59-51.532882,"71.18,58.29"
2024-05-28_12-59-51.565571,"72.00,84.96"
2024-05-28_12-59-51.598341,"80.79,87.28"
2024-05-28_12-59-51.627057,"83.90,87.68"
2024-05-28_12-59-51.659870,"105.93,80.14"
2024-05-28_12-59-51.693405,"103.27,73.86"
2024-05-28_12-59-51.725354,"75.22,55.00"
2024-05-28_12-59-51.758181,"83.96,55.60"
2024-05-28_12-59-51.790932,"79.81,59.08"
2024-05-28_12-59-51.823617,"66.32,50.31"
2024-05-28_12-59-51.852384,"70.57,62.24"
2024-05-28_12-59-51.885098,"76.31,81.31"
2024-05-28_12-59-51.917894,"77.29,89.29"
2024-05-28_12-59-51.950646,"88.66,80.37"
2024-05-28_12-59-51.983413,"88.99,90.97"
2024-05-28_12-59-52.016275,"104.25,53.21"
2024-05-28_12-59-52.049377,"89.54,52.08"
2024-05-28_12-59-52.077847,"97.43,55.15"
2024-05-28_12-59-52.110353,"84.37,59.09"
2024-05-28_12-59-52.143117,"79.52,57.43"
2024-05-28_12-59-52.176036,"67.72,103.98"
2024-05-28_12-59-52.208709,"76.80,81.26"
2024-05-28_12-59-52.241415,"92.81,88.01"
2024-05-28_12-59-52.274139,"98.57,88.45"
2024-05-28_12-59-52.303147,"86.49,78.31"
2024-05-28_12-59-52.335616,"107.43,68.77"
2024-05-28_12-59-52.368391,"99.02,58.05"
2024-05-28_12-59-52.401138,"93.36,48.01"
2024-05-28_12-59-52.433913,"73.36,61.24"
2024-05-28_12-59-52.466686,"69.46,59.38"
2024-05-28_12-59-52.499366,"65.05,94.31"
2024-05-28_12-59-52.528102,"86.75,86.38"
2024-05-28_12-59-52.560912,"82.21,80.87"
2024-05-28_12-59-52.593731,"97.57,86.98"
2024-05-28_12-59-52.626488,"92.22,69.53"
2024-05-28_12-59-52.659221,"99.57,53.06"
2024-05-28_12-59-52.691951,"106.44,57.32"
2024-05-28_12-59-52.725332,"87.10,55.03"
2024-05-28_12-59-52.753422,"72.18,56.32"
2024-05-28_12-59-52.786151,"73.19,56.87"
2024-05-28_12-59-52.818977,"71.29,81.10"
2024-05-28_12-59-52.851752,"82.10,92.92"
2024-05-28_12-59-52.884478,"80.70,87.90"
2024-05-28_12-59-52.917212,"89.58,86.08"
2024-05-28_12-59-52.949904,"99.43,74.30"
2024-05-28_12-59-52.978712,"98.26,47.42"
2024-05-28_12-59-53.011544,"93.34,58.22"
2024-05-28_12-59-53.055676,"74.66,56.85"
2024-05-28_12-59-53.078532,"86.34,82.06"
2024-05-28_12-59-53.110042,"76.99,70.01"
2024-05-28_12-59-53.145163,"72.03,75.09"
2024-05-28_12-59-53.175440,"61.00,104.04"
2024-05-28_12-59-53.203958,"73.72,86.06"
2024-05-28_12-59-53.236760,"92.13,83.50"
2024-05-28_12-59-53.269574,"107.70,58.46"
2024-05-28_12-59-53.302289,"81.23,54.62"
2024-05-28_12-59-53.335086,"80.08,56.28"
2024-05-28_12-59-53.367795,"70.61,54.42"
2024-05-28_12-59-53.400485,"68.08,54.71"
2024-05-28_12-59-53.429408,"75.92,82.23"
2024-05-28_12-59-53.461989,"76.60,83.77"
2024-05-28_12-59-53.494733,"78.69,89.10"
2024-05-28_12-59-53.527480,"94.02,76.03"
2024-05-28_12-59-53.560235,"96.95,78.74"
2024-05-28_12-59-53.593087,"110.34,57.92"
2024-05-28_12-59-53.625757,"74.44,55.20"
2024-05-28_12-59-53.654517,"85.55,56.23"
2024-05-28_12-59-53.687251,"67.43,59.87"
2024-05-28_12-59-53.720178,"90.01,47.22"
2024-05-28_12-59-53.752796,"63.81,97.46"
2024-05-28_12-59-53.785580,"85.11,91.02"
2024-05-28_12-59-53.818430,"71.13,89.57"
2024-05-28_12-59-53.851054,"98.84,82.52"
2024-05-28_12-59-53.883694,"90.79,69.73"
2024-05-28_12-59-53.912597,"107.09,54.17"
2024-05-28_12-59-53.945302,"102.34,51.79"
2024-05-28_12-59-53.978055,"80.22,54.84"
2024-05-28_12-59-54.010843,"65.72,59.70"
2024-05-28_12-59-54.043719,"82.21,84.37"
2024-05-28_12-59-54.076257,"68.81,93.61"
2024-05-28_12-59-54.108945,"80.81,80.24"
2024-05-28_12-59-54.137830,"87.01,88.40"
2024-05-28_12-59-54.170621,"101.46,80.47"
2024-05-28_12-59-54.203353,"88.93,55.86"
2024-05-28_12-59-54.236140,"87.00,54.78"
2024-05-28_12-59-54.268877,"102.93,57.71"
2024-05-28_12-59-54.301531,"71.05,50.12"
2024-05-28_12-59-54.334255,"80.67,60.87"
2024-05-28_12-59-54.363026,"71.43,63.71"
2024-05-28_12-59-54.395765,"79.52,88.22"
2024-05-28_12-59-54.428615,"84.15,88.24"
2024-05-28_12-59-54.461329,"84.96,89.31"
2024-05-28_12-59-54.494087,"105.06,82.53"
2024-05-28_12-59-54.526805,"98.37,52.11"
2024-05-28_12-59-54.559524,"98.14,53.66"
2024-05-28_12-59-54.588286,"95.63,58.99"
2024-05-28_12-59-54.621060,"63.17,57.69"
2024-05-28_12-59-54.653831,"77.48,85.59"
2024-05-28_12-59-54.686633,"69.14,76.24"
2024-05-28_12-59-54.719388,"80.24,87.56"
2024-05-28_12-59-54.752098,"90.26,91.14"
2024-05-28_12-59-54.784792,"83.20,75.92"
2024-05-28_12-59-54.813614,"103.43,69.80"
2024-05-28_12-59-54.846365,"88.72,58.15"
2024-05-28_12-59-54.879132,"100.13,47.62"
2024-05-28_12-59-54.911955,"85.39,59.30"
2024-05-28_12-59-54.944647,"58.93,58.03"
2024-05-28_12-59-54.977390,"72.85,55.90"
2024-05-28_12-59-55.010111,"82.07,88.35"
2024-05-28_12-59-55.038911,"89.72,85.57"
2024-05-28_12-59-55.071650,"93.70,88.45"
2024-05-28_12-59-55.104422,"97.98,78.09"
2024-05-28_12-59-55.137151,"98.65,53.08"
2024-05-28_12-59-55.169967,"97.01,58.21"
2024-05-28_12-59-55.202636,"91.80,55.74"
2024-05-28_12-59-55.235371,"78.48,55.76"
2024-05-28_12-59-55.264168,"73.53,57.17"
2024-05-28_12-59-55.296884,"72.47,96.92"
2024-05-28_12-59-55.329647,"81.10,93.24"
2024-05-28_12-59-55.362737,"80.92,89.22"
2024-05-28_12-59-55.395668,"84.12,89.29"
2024-05-28_12-59-55.428097,"100.88,59.83"
2024-05-28_12-59-55.460627,"81.70,48.02"
2024-05-28_12-59-55.489459,"116.56,57.67"
2024-05-28_12-59-55.522165,"74.14,56.70"
2024-05-28_12-59-55.554955,"74.86,54.64"
2024-05-28_12-59-55.587659,"82.98,61.00"
2024-05-28_12-59-55.620495,"80.25,76.76"
2024-05-28_12-59-55.653190,"91.49,93.26"
2024-05-28_12-59-55.685907,"85.97,78.22"
2024-05-28_12-59-55.714671,"92.32,88.85"
2024-05-28_12-59-55.747468,"108.88,58.58"
2024-05-28_12-59-55.780214,"82.64,54.58"
2024-05-28_12-59-55.812997,"83.13,55.82"
2024-05-28_12-59-55.845746,"73.11,55.84"
2024-05-28_12-59-55.878516,"69.07,55.32"
2024-05-28_12-59-55.911302,"74.73,72.02"
2024-05-28_12-59-55.939988,"77.26,85.31"
2024-05-28_12-59-55.972728,"74.93,91.03"
2024-05-28_12-59-56.005475,"84.36,85.29"
2024-05-28_12-59-56.038240,"95.50,70.01"
2024-05-28_12-59-56.071046,"114.70,58.70"
2024-05-28_12-59-56.103790,"75.43,54.92"
2024-05-28_12-59-56.136433,"95.24,56.34"
2024-05-28_12-59-56.165182,"65.48,60.78"
2024-05-28_12-59-56.198096,"88.79,51.58"
2024-05-28_12-59-56.230777,"69.03,90.32"
2024-05-28_12-59-56.263501,"92.95,82.95"
2024-05-28_12-59-56.296239,"83.83,89.42"
2024-05-28_12-59-56.329042,"97.55,83.19"
2024-05-28_12-59-56.361700,"90.85,71.17"
2024-05-28_12-59-56.394424,"107.48,54.21"
2024-05-28_12-59-56.423584,"104.01,52.80"
2024-05-28_12-59-56.456076,"80.05,55.88"
2024-05-28_12-59-56.488927,"72.57,61.63"
2024-05-28_12-59-56.521819,"82.32,61.98"
2024-05-28_12-59-56.554318,"66.44,96.88"
2024-05-28_12-59-56.586959,"76.18,90.54"
2024-05-28_12-59-56.633063,"82.08,94.23"
2024-05-28_12-59-56.648497,"90.72,78.68"
2024-05-28_12-59-56.681234,"82.42,59.52"
2024-05-28_12-59-56.714046,"89.56,57.81"
2024-05-28_12-59-56.746888,"76.74,59.30"
2024-05-28_12-59-56.779568,"82.44,50.08"
2024-05-28_12-59-56.812217,"77.18,59.69"
2024-05-28_12-59-56.844907,"72.78,81.31"
2024-05-28_12-59-56.873722,"73.94,92.11"
2024-05-28_12-59-56.906487,"84.54,92.20"
2024-05-28_12-59-56.939241,"81.10,90.16"
2024-05-28_12-59-56.991698,"101.33,73.39"
2024-05-28_12-59-57.007166,"67.32,53.45"
2024-05-28_12-59-57.037501,"89.71,57.26"
2024-05-28_12-59-57.070267,"87.76,63.13"
2024-05-28_13-00-07.363762,"66.11,57.46"
2024-05-28_13-00-07.364292,90.07
2024-05-28_13-00-07.364424,"99.21,82.52"
2024-05-28_13-00-07.364507,"101.41,60.52"
2024-05-28_13-00-07.364598,"76.96,55.96"
2024-05-28_13-00-07.364682,"84.15,55.55"
2024-05-28_13-00-07.364761,"85.91,60.15"
2024-05-28_13-00-07.364888,"85.71,48.79"
2024-05-28_13-00-07.370134,"72.61,63.53"
2024-05-28_13-00-07.370303,"73.28,82.79"
2024-05-28_13-00-07.370405,"13,93.69"
2024-05-28_13-00-07.370500,"81.43,90.07"
2024-05-28_13-00-07.370615,"99.21,82.52"
2024-05-28_13-00-07.370727,"101.41,60.52"
2024-05-28_13-00-07.370840,"76.96,55.96"
2024-05-28_13-00-07.370951,"84.15,55.55"
2024-05-28_13-00-07.371078,"85.91,60.15"
2024-05-28_13-00-07.371161,"85.71,48.79"
2024-05-28_13-00-07.371271,"72.61,63.53"
2024-05-28_13-00-07.371338,"73.28,82.79"
2024-05-28_13-00-07.371435,"72.66,90.19"
2024-05-28_13-00-07.400146,"86.86,86.42"
2024-05-28_13-00-07.447162,"86.95,73.37"
2024-05-28_13-00-17.661606,"94.68,56.96"
2024-05-28_13-00-17.664240,".41,59.97"
2024-05-28_13-00-17.665130,"75.50,90.75"
2024-05-28_13-00-17.666121,"77.00,90.43"
2024-05-28_13-00-17.666291,"93.10,91.18"
2024-05-28_13-00-17.668233,"88.16,74.14"
2024-05-28_13-00-17.668697,"98.81,69.91"
2024-05-28_13-00-17.668874,"88.79,59.23"
2024-05-28_13-00-17.683306,".42,47.45"
2024-05-28_13-00-17.687319,"82.22,61.14"
2024-05-28_13-00-17.687530,"58.23,58.18"
2024-05-28_13-00-17.687711,"74.41,59.97"
2024-05-28_13-00-17.687897,"75.50,90.75"
2024-05-28_13-00-17.688049,"77.00,90.43"
2024-05-28_13-00-17.688193,"93.10,91.18"
2024-05-28_13-00-17.688334,"88.16,74.14"
2024-05-28_13-00-17.688475,"98.81,69.91"
2024-05-28_13-00-17.688853,"88.79,59.23"
2024-05-28_13-00-17.697078,"95.16,55.72"
2024-05-28_13-00-17.700843,"84.63,56.12"
2024-05-28_13-00-17.738495,"71.23,56.25"
2024-05-28_13-00-17.766515,"79.22,67.58"
2024-05-28_13-00-17.795228,"64.24,91.40"
2024-05-28_13-00-17.827809,"78.55,93.62"
2024-05-28_13-00-17.860572,"77.79,87.07"
2024-05-28_13-00-17.893363,"82.07,79.88"
2024-05-28_13-00-17.926145,"92.20,50.38"
2024-05-28_13-00-17.958894,"115.00,59.15"
2024-05-28_13-00-17.991599,"93.96,55.13"
2024-05-28_13-00-18.020774,"79.60,55.85"
2024-05-28_13-00-18.053074,"72.52,61.07"
2024-05-28_13-00-18.085823,"85.51,62.68"
2024-05-28_13-00-18.118618,"65.90,79.95"
2024-05-28_13-00-18.151326,"80.98,82.44"
2024-05-28_13-00-18.184138,"75.36,88.35"
2024-05-28_13-00-18.216832,"85.51,84.33"
2024-05-28_13-00-18.245522,"83.28,59.71"
2024-05-28_13-00-18.278343,"107.42,54.54"
2024-05-28_13-00-18.311078,"107.17,51.75"
2024-05-28_13-00-18.343841,"86.88,55.81"
2024-05-28_13-00-18.376586,"72.35,61.88"
2024-05-28_13-00-18.409416,"88.94,57.83"
2024-05-28_13-00-18.442082,"64.79,78.61"
2024-05-28_13-00-18.474788,"78.86,82.23"
2024-05-28_13-00-18.503560,"85.71,84.97"
2024-05-28_13-00-18.536662,"99.83,88.55"
2024-05-28_13-00-18.569206,"78.46,60.21"
2024-05-28_13-00-18.601990,"83.18,60.78"
2024-05-28_13-00-18.634735,"88.99,58.68"
2024-05-28_13-00-18.671187,"100.09,48.33"
2024-05-28_13-00-18.696204,"89.08,61.72"
2024-05-28_13-00-18.728887,"77.53,84.90"
2024-05-28_13-00-18.761709,"68.88,71.70"
2024-05-28_13-00-18.794468,"80.90,90.54"
2024-05-28_13-00-18.827151,"72.30,97.35"
2024-05-28_13-00-18.859949,"72.56,95.79"
2024-05-28_13-00-18.892666,"96.78,55.75"
2024-05-28_13-00-18.925363,"99.43,53.13"
2024-05-28_13-00-18.954193,"86.28,59.26"
2024-05-28_13-00-18.986905,"88.01,57.09"
2024-05-28_13-00-19.019665,"84.45,56.07"
2024-05-28_13-00-19.052546,"79.57,56.16"
2024-05-28_13-00-19.085210,"77.28,67.91"
2024-05-28_13-00-19.117872,"73.46,99.13"
2024-05-28_13-00-19.150563,"92.64,85.11"
2024-05-28_13-00-19.179405,"88.29,85.01"
2024-05-28_13-00-19.212166,"95.98,80.76"
2024-05-28_13-00-19.244929,"97.92,47.99"
2024-05-28_13-00-19.277776,"102.21,58.87"
2024-05-28_13-00-19.310582,"91.29,56.19"
2024-05-28_13-00-19.343273,"87.91,55.81"
2024-05-28_13-00-19.375864,"78.83,59.31"
2024-05-28_13-00-19.404680,"78.64,60.28"
2024-05-28_13-00-19.437472,"74.66,96.79"
2024-05-28_13-00-19.470186,"80.59,83.39"
2024-05-28_13-00-19.502955,"86.16,85.48"
2024-05-28_13-00-19.535747,"101.26,81.91"
2024-05-28_13-00-19.568497,"94.63,54.65"
2024-05-28_13-00-19.601152,"98.40,55.23"
2024-05-28_13-00-19.629918,"96.65,52.94"
2024-05-28_13-00-19.662735,"71.04,56.12"
2024-05-28_13-00-19.695519,"66.82,61.52"
2024-05-28_13-00-19.728246,"80.07,64.12"
2024-05-28_13-00-19.761017,"67.75,93.67"
2024-05-28_13-00-19.797184,"78.79,94.00"
2024-05-28_13-00-19.826496,"73.13,98.47"
2024-05-28_13-00-19.857711,"87.80,62.96"
2024-05-28_13-00-19.888084,"85.74,57.65"
2024-05-28_13-00-19.920748,"88.11,56.04"
2024-05-28_13-00-19.953512,"104.55,58.12"
2024-05-28_13-00-19.986304,"80.72,51.60"
2024-05-28_13-00-20.019010,"73.16,60.99"
2024-05-28_13-00-20.051725,"79.32,89.38"
2024-05-28_13-00-20.080500,"70.39,92.97"
2024-05-28_13-00-20.113229,"84.22,90.42"
2024-05-28_13-00-20.146041,"79.38,87.49"
2024-05-28_13-00-20.178839,"88.42,92.83"
2024-05-28_13-00-20.211552,"97.20,56.31"
2024-05-28_13-00-20.244255,"87.91,54.61"
2024-05-28_13-00-20.277014,"82.02,60.20"
2024-05-28_13-00-20.305737,"84.43,56.99"
2024-05-28_13-00-20.338506,"75.74,55.89"
2024-05-28_13-00-20.371320,"82.03,56.35"
2024-05-28_13-00-20.404066,"67.06,77.49"
2024-05-28_13-00-20.436796,"74.95,97.05"
2024-05-28_13-00-20.469599,"80.59,80.59"
2024-05-28_13-00-20.502247,"93.43,84.43"
2024-05-28_13-00-20.531047,"91.15,73.03"
2024-05-28_13-00-20.563806,"97.64,48.01"
2024-05-28_13-00-20.596572,"91.93,58.96"
2024-05-28_13-00-20.629319,"92.88,56.96"
2024-05-28_13-00-20.662250,"77.27,57.12"
2024-05-28_13-00-20.694837,"80.01,70.43"
2024-05-28_13-00-20.727641,"76.95,77.84"
2024-05-28_13-00-20.756283,"71.85,97.05"
2024-05-28_13-00-20.789042,"85.59,90.37"
2024-05-28_13-00-20.821838,"79.51,85.50"
2024-05-28_13-00-20.854622,"96.49,82.74"
2024-05-28_13-00-20.887362,"94.75,55.40"
2024-05-28_13-00-20.920137,"110.36,55.98"
2024-05-28_13-00-20.952802,"102.16,51.99"
2024-05-28_13-00-20.981524,"74.96,55.80"
2024-05-28_13-00-21.014340,"64.70,60.71"
2024-05-28_13-00-21.047083,"83.40,85.33"
2024-05-28_13-00-21.079855,"66.84,93.31"
2024-05-28_13-00-21.112649,"76.16,92.67"
2024-05-28_13-00-21.145378,"77.26,90.94"
2024-05-28_13-00-21.178052,"95.55,87.97"
2024-05-28_13-00-21.210786,"89.37,58.23"
2024-05-28_13-00-21.240096,"109.32,53.43"
2024-05-28_13-00-21.272627,"75.95,58.77"
2024-05-28_13-00-21.305495,"76.83,49.35"
2024-05-28_13-00-21.337902,"86.83,61.16"
2024-05-28_13-00-21.370680,"71.45,58.75"
2024-05-28_13-00-21.403358,"66.82,97.73"
2024-05-28_13-00-21.436378,"81.10,90.77"
2024-05-28_13-00-21.464840,"75.71,87.39"
2024-05-28_13-00-21.497606,"90.50,89.79"
2024-05-28_13-00-21.530343,"89.54,78.31"
2024-05-28_13-00-21.563114,"98.73,54.69"
2024-05-28_13-00-21.595926,"96.63,58.44"
2024-05-28_13-00-21.628626,"76.08,55.42"
2024-05-28_13-00-21.661301,"71.33,58.23"
2024-05-28_13-00-21.690129,"61.66,57.92"
2024-05-28_13-00-21.722883,"76.39,55.29"
2024-05-28_13-00-21.755653,"72.43,99.32"
2024-05-28_13-00-21.788459,"82.01,83.17"
2024-05-28_13-00-21.821208,"83.39,85.41"
2024-05-28_13-00-21.853928,"90.20,87.12"
2024-05-28_13-00-21.886615,"101.25,66.15"
2024-05-28_13-00-21.915440,"113.78,58.34"
2024-05-28_13-00-21.948196,"81.51,56.39"
2024-05-28_13-00-21.980939,"81.34,57.07"
2024-05-28_13-00-22.013673,"64.66,59.17"
2024-05-28_13-00-22.046463,"89.25,53.05"
2024-05-28_13-00-22.079160,"66.49,83.48"
2024-05-28_13-00-22.111846,"80.04,82.56"
2024-05-28_13-00-22.140684,"83.47,93.74"
2024-05-28_13-00-22.173504,"89.30,80.64"
2024-05-28_13-00-22.206277,"89.96,72.06"
2024-05-28_13-00-22.238966,"106.15,54.74"
2024-05-28_13-00-22.272350,"88.18,52.93"
2024-05-28_13-00-22.304682,"80.74,56.68"
2024-05-28_13-00-22.337211,"81.96,61.43"
2024-05-28_13-00-22.370116,"80.25,58.33"
2024-05-28_13-00-22.400665,"68.57,87.91"
2024-05-28_13-00-22.432989,"72.87,83.50"
2024-05-28_13-00-22.464324,"75.89,92.25"
2024-05-28_13-00-22.497030,"82.90,101.33"
2024-05-28_13-00-22.529663,"80.63,84.96"
2024-05-28_13-00-22.562439,"103.86,56.00"
2024-05-28_13-00-22.591226,"75.96,59.62"
2024-05-28_13-00-22.623995,"100.86,47.63"
2024-05-28_13-00-22.656767,"90.18,61.50"
2024-05-28_13-00-22.689499,"59.13,58.80"
2024-05-28_13-00-22.722261,"78.98,78.92"
2024-05-28_13-00-22.755030,"73.56,90.93"
