timestamp,EMG
2024-05-28_13-28-26.985276,"49.19,72.86"
2024-05-28_13-28-27.017894,"89.69,82.70"
2024-05-28_13-28-27.050389,"60.93,72.86"
2024-05-28_13-28-27.083097,"77.61,60.06"
2024-05-28_13-28-27.111879,"97.45,46.78"
2024-05-28_13-28-27.144674,"67.75,58.78"
2024-05-28_13-28-27.177481,"64.20,60.57"
2024-05-28_13-28-27.210192,"53.39,64.62"
2024-05-28_13-28-27.242942,"53.35,70.76"
2024-05-28_13-28-27.275718,"61.43,65.30"
2024-05-28_13-28-27.308408,"77.34,78.65"
2024-05-28_13-28-27.337195,"53.56,74.22"
2024-05-28_13-28-27.369912,"53.25,78.08"
2024-05-28_13-28-27.402689,"86.79,78.35"
2024-05-28_13-28-27.435473,"78.30,71.92"
2024-05-28_13-28-27.468277,"76.62,76.66"
2024-05-28_13-28-27.501018,"87.95,41.91"
2024-05-28_13-28-27.533724,"70.89,62.09"
2024-05-28_13-28-27.562440,"60.18,56.13"
2024-05-28_13-28-27.595193,"56.88,74.74"
2024-05-28_13-28-27.628018,"59.76,67.46"
2024-05-28_13-28-27.660773,"53.13,71.09"
2024-05-28_13-28-27.693482,"73.22,68.11"
2024-05-28_13-28-27.727159,"48.67,72.53"
2024-05-28_13-28-27.758975,"68.93,84.81"
2024-05-28_13-28-27.791699,"60.74,71.25"
2024-05-28_13-28-27.820460,"77.52,75.45"
2024-05-28_13-28-27.853216,"98.61,47.72"
2024-05-28_13-28-27.889882,"65.15,62.52"
2024-05-28_13-28-27.918917,"47.74,74.68"
2024-05-28_13-28-27.951601,"57.85,65.32"
2024-05-28_13-28-27.984284,"52.63,70.10"
2024-05-28_13-28-28.016996,"60.45,65.70"
2024-05-28_13-28-28.045768,"74.98,77.54"
2024-05-28_13-28-28.078514,"50.66,74.87"
2024-05-28_13-28-28.111276,"54.21,75.55"
2024-05-28_13-28-28.144027,"91.84,69.04"
2024-05-28_13-28-28.176783,"76.52,70.23"
2024-05-28_13-28-28.209597,"78.86,61.68"
2024-05-28_13-28-28.242303,"91.44,42.33"
2024-05-28_13-28-28.271019,"67.72,68.35"
2024-05-28_13-28-28.303804,"49.37,56.36"
2024-05-28_13-28-28.336682,"58.40,74.63"
2024-05-28_13-28-28.369335,"56.98,67.77"
2024-05-28_13-28-28.402105,"51.42,71.57"
2024-05-28_13-28-28.434844,"70.58,68.50"
2024-05-28_13-28-28.467596,"48.79,75.11"
2024-05-28_13-28-28.496282,"91.08,83.16"
2024-05-28_13-28-28.529022,"60.02,71.84"
2024-05-28_13-28-28.561858,"76.54,60.20"
2024-05-28_13-28-28.594671,"92.50,47.21"
2024-05-28_13-28-28.627424,"68.62,38.96"
2024-05-28_13-28-28.660144,"73.57,42.65"
2024-05-28_13-28-28.692872,"52.21,64.75"
2024-05-28_13-28-28.721729,"51.87,70.34"
2024-05-28_13-28-28.754411,"61.80,66.21"
2024-05-28_13-28-28.787156,"66.33,78.07"
2024-05-28_13-28-28.819956,"53.91,73.43"
2024-05-28_13-28-28.852642,"52.26,82.51"
2024-05-28_13-28-28.885483,"99.48,77.91"
2024-05-28_13-28-28.918188,"68.73,78.85"
2024-05-28_13-28-28.946870,"78.63,53.11"
2024-05-28_13-28-28.979633,"87.69,41.00"
2024-05-28_13-28-29.012393,"57.47,65.94"
2024-05-28_13-28-29.045166,"57.01,56.40"
2024-05-28_13-28-29.077931,"57.24,75.00"
2024-05-28_13-28-29.110687,"57.53,66.81"
2024-05-28_13-28-29.143401,"53.00,70.59"
2024-05-28_13-28-29.172141,"69.67,68.74"
2024-05-28_13-28-29.204901,"54.96,72.38"
2024-05-28_13-28-29.237658,"51.36,80.69"
2024-05-28_13-28-29.270535,"82.86,73.33"
2024-05-28_13-28-29.303259,"72.24,76.61"
2024-05-28_13-28-29.335998,"80.36,66.77"
2024-05-28_13-28-29.368664,"97.78,39.96"
2024-05-28_13-28-29.397430,"74.80,51.23"
2024-05-28_13-28-29.430231,"55.08,46.36"
2024-05-28_13-28-29.462938,"51.73,71.06"
2024-05-28_13-28-29.495724,"61.18,65.87"
2024-05-28_13-28-29.528498,"56.74,76.16"
2024-05-28_13-28-29.561254,"62.97,72.80"
2024-05-28_13-28-29.593951,"54.87,70.17"
2024-05-28_13-28-29.622697,"57.32,80.43"
2024-05-28_13-28-29.655473,"100.62,63.01"
2024-05-28_13-28-29.691537,"63.84,78.78"
2024-05-28_13-28-29.722168,"81.75,41.88"
2024-05-28_13-28-29.764241,"99.89,46.39"
2024-05-28_13-28-29.789553,"65.19,77.51"
2024-05-28_13-28-29.819563,"61.04,63.10"
2024-05-28_13-28-29.848020,"53.29,65.04"
2024-05-28_13-28-29.880841,"53.19,70.65"
2024-05-28_13-28-29.913549,"61.07,67.16"
2024-05-28_13-28-29.946262,"83.54,75.10"
2024-05-28_13-28-29.979030,"50.47,79.20"
2024-05-28_13-28-30.011786,"52.46,74.15"
2024-05-28_13-28-30.044539,"80.94,71.54"
2024-05-28_13-28-30.073262,"69.49,70.04"
2024-05-28_13-28-30.106018,"87.54,62.57"
2024-05-28_13-28-30.138792,"89.88,40.60"
2024-05-28_13-28-30.171548,"79.58,59.68"
2024-05-28_13-28-30.204429,"70.13,59.35"
2024-05-28_13-28-30.237290,"57.45,64.52"
2024-05-28_13-28-30.269898,"55.98,75.22"
2024-05-28_13-28-30.298596,"52.71,71.37"
2024-05-28_13-28-30.331350,"75.73,68.83"
2024-05-28_13-28-30.364135,"54.91,73.71"
2024-05-28_13-28-30.396906,"52.35,77.90"
2024-05-28_13-28-30.429684,"83.60,87.75"
2024-05-28_13-28-30.462469,"74.41,76.40"
2024-05-28_13-28-30.495105,"82.25,48.26"
2024-05-28_13-28-30.527763,"93.27,33.98"
2024-05-28_13-28-30.556550,"78.83,63.82"
2024-05-28_13-28-30.589447,"69.13,63.97"
2024-05-28_13-28-30.622128,"51.20,71.33"
2024-05-28_13-28-30.654912,"61.69,66.26"
2024-05-28_13-28-30.687625,"49.31,70.03"
2024-05-28_13-28-30.720382,"67.02,78.34"
2024-05-28_13-28-30.753089,"52.14,71.31"
2024-05-28_13-28-30.781864,"51.68,72.97"
2024-05-28_13-28-30.814615,"98.03,71.57"
2024-05-28_13-28-30.847383,"72.74,79.08"
2024-05-28_13-28-30.880154,"80.82,42.02"
2024-05-28_13-28-30.912928,"96.10,42.93"
2024-05-28_13-28-30.945733,"53.04,74.97"
2024-05-28_13-28-30.978360,"58.78,67.92"
2024-05-28_13-28-31.007118,"54.80,75.14"
2024-05-28_13-28-31.040019,"52.67,71.82"
2024-05-28_13-28-31.072786,"59.33,66.69"
2024-05-28_13-28-31.105515,"64.43,71.97"
2024-05-28_13-28-31.138242,"56.23,70.58"
2024-05-28_13-28-31.170944,"79.87,84.08"
2024-05-28_13-28-31.204119,"89.40,76.74"
2024-05-28_13-28-31.232565,"69.60,67.75"
2024-05-28_13-28-31.265208,"84.09,58.53"
2024-05-28_13-28-31.298088,"98.42,46.64"
2024-05-28_13-28-31.332274,"60.43,49.46"
2024-05-28_13-28-31.363495,"58.64,60.59"
2024-05-28_13-28-31.396209,"59.49,64.96"
2024-05-28_13-28-31.428873,"47.99,70.21"
2024-05-28_13-28-31.457789,"61.10,76.84"
2024-05-28_13-28-31.490455,"70.87,68.88"
2024-05-28_13-28-31.523380,"49.85,73.34"
2024-05-28_13-28-31.556287,"58.69,75.74"
2024-05-28_13-28-31.588831,"88.75,75.84"
2024-05-28_13-28-31.624740,"75.05,76.49"
2024-05-28_13-28-31.654236,"81.29,64.61"
2024-05-28_13-28-31.683107,"88.48,38.20"
2024-05-28_13-28-31.715785,"82.10,62.23"
2024-05-28_13-28-31.748529,"54.13,63.73"
2024-05-28_13-28-31.781246,"50.14,70.95"
2024-05-28_13-28-31.814034,"57.55,64.87"
2024-05-28_13-28-31.846767,"54.80,71.31"
2024-05-28_13-28-31.879456,"77.81,68.27"
2024-05-28_13-28-31.908263,"48.37,79.23"
2024-05-28_13-28-31.941007,"63.41,73.93"
2024-05-28_13-28-31.973744,"73.17,80.89"
2024-05-28_13-28-32.006677,"76.60,75.41"
2024-05-28_13-28-32.039350,"86.01,49.21"
2024-05-28_13-28-32.072022,"88.10,40.87"
2024-05-28_13-28-32.104839,"70.72,66.46"
2024-05-28_13-28-32.133582,"62.41,66.74"
2024-05-28_13-28-32.166277,"46.09,69.71"
2024-05-28_13-28-32.199023,"58.90,75.50"
2024-05-28_13-28-32.231856,"56.79,66.98"
2024-05-28_13-28-32.265211,"64.59,71.99"
2024-05-28_13-28-32.297666,"59.72,70.61"
2024-05-28_13-28-32.330046,"52.28,81.30"
2024-05-28_13-28-32.358842,"90.71,75.53"
2024-05-28_13-28-32.391617,"60.15,67.68"
2024-05-28_13-28-32.424364,"79.36,59.86"
2024-05-28_13-28-32.457081,"103.08,46.85"
2024-05-28_13-28-32.489831,"63.05,62.03"
2024-05-28_13-28-32.522592,"69.49,60.42"
2024-05-28_13-28-32.555417,"54.42,64.51"
2024-05-28_13-28-32.584051,"52.43,71.40"
2024-05-28_13-28-32.616921,"61.96,65.98"
2024-05-28_13-28-32.649645,"70.38,78.03"
2024-05-28_13-28-32.683301,"48.72,74.98"
2024-05-28_13-28-32.715272,"54.46,76.27"
2024-05-28_13-28-32.747960,"92.39,68.12"
2024-05-28_13-28-32.780636,"75.06,69.35"
2024-05-28_13-28-32.809367,"80.23,42.33"
2024-05-28_13-28-32.842200,"88.53,42.04"
2024-05-28_13-28-32.874962,"70.93,61.84"
2024-05-28_13-28-32.907682,"62.75,57.13"
2024-05-28_13-28-32.940456,"57.42,75.30"
2024-05-28_13-28-32.973247,"55.23,67.19"
2024-05-28_13-28-33.005866,"52.00,74.66"
2024-05-28_13-28-33.034650,"76.04,68.48"
2024-05-28_13-28-33.067418,"47.46,72.24"
2024-05-28_13-28-33.100181,"68.88,87.01"
2024-05-28_13-28-33.132922,"79.68,65.19"
2024-05-28_13-28-33.165727,"73.73,75.23"
2024-05-28_13-28-33.198492,"87.88,47.86"
2024-05-28_13-28-33.231161,"81.14,39.63"
2024-05-28_13-28-33.259988,"84.12,59.13"
2024-05-28_13-28-33.292671,"47.43,64.36"
2024-05-28_13-28-33.325450,"52.93,70.74"
2024-05-28_13-28-33.358182,"61.05,65.08"
2024-05-28_13-28-33.390946,"71.03,77.44"
2024-05-28_13-28-33.423731,"61.84,73.78"
2024-05-28_13-28-33.456469,"51.18,69.57"
2024-05-28_13-28-33.489228,"77.88,77.96"
2024-05-28_13-28-33.518012,"84.52,66.51"
2024-05-28_13-28-33.550785,"67.39,77.63"
2024-05-28_13-28-33.583656,"83.91,42.18"
2024-05-28_13-28-33.616325,"83.20,46.74"
2024-05-28_13-28-33.649063,"76.80,54.22"
2024-05-28_13-28-33.681851,"53.35,75.28"
2024-05-28_13-28-33.714724,"57.24,67.03"
2024-05-28_13-28-33.745789,"53.51,70.35"
2024-05-28_13-28-33.776264,"74.27,66.69"
2024-05-28_13-28-33.809426,"61.00,71.42"
2024-05-28_13-28-33.841760,"51.50,80.93"
2024-05-28_13-28-33.874303,"77.50,84.89"
2024-05-28_13-28-33.907044,"76.03,78.31"
2024-05-28_13-28-33.939889,"75.42,68.08"
2024-05-28_13-28-33.968513,"90.46,40.83"
2024-05-28_13-28-34.001243,"64.85,76.45"
2024-05-28_13-28-34.034033,"48.60,66.66"
2024-05-28_13-28-34.066840,"61.10,71.35"
2024-05-28_13-28-34.099592,"59.63,64.79"
2024-05-28_13-28-34.132331,"57.07,75.39"
2024-05-28_13-28-34.165012,"51.10,73.21"
2024-05-28_13-28-34.193850,"65.42,68.06"
2024-05-28_13-28-34.226597,"54.90,75.61"
2024-05-28_13-28-34.259360,"86.23,84.92"
2024-05-28_13-28-34.292126,"59.39,80.28"
2024-05-28_13-28-34.324838,"78.39,62.04"
2024-05-28_13-28-34.357642,"90.57,46.54"
2024-05-28_13-28-34.390290,"85.23,64.53"
2024-05-28_13-28-34.419049,"71.86,58.70"
2024-05-28_13-28-34.451920,"49.52,64.09"
2024-05-28_13-28-34.484614,"53.13,70.65"
2024-05-28_13-28-34.517526,"62.72,65.91"
2024-05-28_13-28-34.550186,"63.88,71.66"
2024-05-28_13-28-34.582875,"64.20,78.45"
2024-05-28_13-28-34.615605,"49.55,71.34"
2024-05-28_13-28-34.644515,"69.57,77.55"
2024-05-28_13-28-34.677559,"84.63,65.18"
2024-05-28_13-28-34.709899,"75.22,77.68"
2024-05-28_13-28-34.742718,"82.59,41.08"
2024-05-28_13-28-34.775497,"76.36,43.73"
2024-05-28_13-28-34.808135,"83.86,58.92"
2024-05-28_13-28-34.840849,"53.71,64.93"
2024-05-28_13-28-34.869624,"56.66,75.84"
2024-05-28_13-28-34.902381,"52.19,71.30"
2024-05-28_13-28-34.935156,"67.97,66.50"
2024-05-28_13-28-34.967953,"59.63,73.94"
2024-05-28_13-28-35.000704,"63.45,72.05"
2024-05-28_13-28-35.033485,"94.02,89.82"
2024-05-28_13-28-35.066126,"74.27,77.76"
2024-05-28_13-28-35.094891,"74.66,67.37"
2024-05-28_13-28-35.127658,"86.78,35.29"
2024-05-28_13-28-35.160472,"79.02,55.25"
2024-05-28_13-28-35.193217,"72.82,52.29"
2024-05-28_13-28-35.226082,"51.16,72.14"
2024-05-28_13-28-35.259278,"60.51,66.32"
2024-05-28_13-28-35.291707,"49.00,69.94"
2024-05-28_13-28-35.320289,"59.99,76.28"
2024-05-28_13-28-35.353287,"65.57,70.90"
2024-05-28_13-28-35.385764,"50.29,74.27"
2024-05-28_13-28-35.418648,"83.28,73.11"
2024-05-28_13-28-35.451306,"85.41,81.99"
2024-05-28_13-28-35.484022,"78.25,61.70"
2024-05-28_13-28-35.516723,"85.19,44.66"
2024-05-28_13-28-35.547854,"79.08,63.60"
2024-05-28_13-28-35.578430,"64.05,65.43"
2024-05-28_13-28-35.611061,"61.66,77.66"
2024-05-28_13-28-35.643710,"51.76,70.76"
2024-05-28_13-28-35.676560,"60.19,66.38"
2024-05-28_13-28-35.709302,"68.68,71.29"
2024-05-28_13-28-35.742020,"63.01,68.20"
2024-05-28_13-28-35.774673,"49.95,91.19"
2024-05-28_13-28-35.804029,"93.80,77.60"
2024-05-28_13-28-35.836388,"78.84,71.01"
2024-05-28_13-28-35.869043,"79.11,73.99"
2024-05-28_13-28-35.901801,"93.95,47.97"
2024-05-28_13-28-35.934608,"65.67,64.95"
2024-05-28_13-28-35.967297,"76.57,61.97"
2024-05-28_13-28-36.000000,"57.69,65.83"
2024-05-28_13-28-36.028794,"46.61,69.16"
2024-05-28_13-28-36.061518,"73.57,79.73"
2024-05-28_13-28-36.094303,"73.18,68.34"
2024-05-28_13-28-36.127045,"53.35,74.49"
2024-05-28_13-28-36.159841,"56.14,81.73"
2024-05-28_13-28-36.192602,"99.89,80.49"
2024-05-28_13-28-36.225291,"77.45,76.58"
2024-05-28_13-28-36.254168,"71.60,46.25"
2024-05-28_13-28-36.286861,"86.24,39.31"
2024-05-28_13-28-36.319947,"89.62,61.00"
2024-05-28_13-28-36.352720,"75.58,49.47"
2024-05-28_13-28-36.385354,"51.36,72.20"
2024-05-28_13-28-36.418186,"54.71,65.58"
2024-05-28_13-28-36.450692,"54.02,70.88"
2024-05-28_13-28-36.479417,"71.71,66.39"
2024-05-28_13-28-36.512102,"56.19,79.90"
2024-05-28_13-28-36.544917,"50.86,75.05"
2024-05-28_13-28-36.577686,"87.61,72.37"
2024-05-28_13-28-36.610417,"72.24,75.86"
2024-05-28_13-28-36.643135,"81.59,67.16"
2024-05-28_13-28-36.675915,"91.94,40.91"
2024-05-28_13-28-36.704620,"77.57,59.40"
2024-05-28_13-28-36.737378,"69.66,47.73"
2024-05-28_13-28-36.770151,"43.05,70.14"
2024-05-28_13-28-36.802968,"59.46,76.02"
2024-05-28_13-28-36.835719,"58.99,67.54"
2024-05-28_13-28-36.868438,"67.79,71.66"
2024-05-28_13-28-36.901157,"66.34,68.72"
2024-05-28_13-28-36.929973,"50.14,85.80"
2024-05-28_13-28-36.962656,"89.15,82.00"
2024-05-28_13-28-36.995467,"58.62,71.02"
2024-05-28_13-28-37.028426,"76.74,75.77"
2024-05-28_13-28-37.061009,"76.39,67.17"
2024-05-28_13-28-37.093740,"53.41,78.39"
2024-05-28_13-28-37.126424,"68.71,64.01"
2024-05-28_13-28-37.155171,"54.36,65.14"
2024-05-28_13-28-37.187977,"52.34,69.98"
2024-05-28_13-28-37.220750,"61.51,66.15"
2024-05-28_13-28-37.253488,"68.65,77.13"
2024-05-28_13-28-37.286228,"57.20,72.89"
2024-05-28_13-28-37.319006,"52.08,70.94"
2024-05-28_13-28-37.351718,"76.56,80.37"
2024-05-28_13-28-37.380432,"87.77,63.99"
2024-05-28_13-28-37.413225,"65.69,77.74"
2024-05-28_13-28-37.445974,"84.68,62.71"
2024-05-28_13-28-37.478746,"91.59,46.24"
2024-05-28_13-28-37.511514,"62.90,57.96"
2024-05-28_13-28-37.544311,"67.92,77.32"
2024-05-28_13-28-37.581101,"53.19,65.61"
2024-05-28_13-28-37.605966,"52.97,70.14"
2024-05-28_13-28-37.638551,"63.04,67.75"
2024-05-28_13-28-37.671305,"63.10,70.97"
2024-05-28_13-28-37.704012,"51.42,79.69"
2024-05-28_13-28-37.736847,"77.59,85.79"
2024-05-28_13-28-37.769556,"89.70,76.99"
2024-05-28_13-28-37.802316,"72.34,68.19"
2024-05-28_13-28-37.831017,"90.18,42.51"
2024-05-28_13-28-37.863777,"90.65,40.55"
2024-05-28_13-28-37.896578,"59.91,54.49"
2024-05-28_13-28-37.929315,"59.64,58.94"
2024-05-28_13-28-37.962067,"59.54,65.35"
2024-05-28_13-28-37.994818,"56.50,74.89"
2024-05-28_13-28-38.027587,"53.31,72.08"
2024-05-28_13-28-38.056295,"73.35,67.98"
2024-05-28_13-28-38.089085,"80.73,67.85"
2024-05-28_13-28-38.121824,"68.88,73.88"
2024-05-28_13-28-38.154569,"81.62,87.42"
2024-05-28_13-28-38.187361,"75.74,76.49"
2024-05-28_13-28-38.220118,"82.40,47.71"
2024-05-28_13-28-38.252881,"95.00,34.76"
2024-05-28_13-28-38.281552,"81.55,63.87"
2024-05-28_13-28-38.314328,"50.31,63.67"
2024-05-28_13-28-38.347097,"51.58,70.43"
2024-05-28_13-28-38.379859,"60.58,66.88"
2024-05-28_13-28-38.412606,"65.72,70.32"
2024-05-28_13-28-38.445363,"64.41,77.85"
2024-05-28_13-28-38.478096,"49.79,72.44"
2024-05-28_13-28-38.510786,"52.50,82.58"
2024-05-28_13-28-38.539637,"88.17,64.17"
2024-05-28_13-28-38.572440,"75.07,62.84"
2024-05-28_13-28-38.605155,"82.25,61.69"
2024-05-28_13-28-38.638026,"88.05,43.13"
2024-05-28_13-28-38.670760,"83.46,60.74"
2024-05-28_13-28-38.703411,"68.65,66.23"
2024-05-28_13-28-38.736160,"54.67,75.37"
2024-05-28_13-28-38.764886,"51.78,71.82"
2024-05-28_13-28-38.797651,"58.46,66.39"
2024-05-28_13-28-38.830428,"64.00,72.11"
2024-05-28_13-28-38.863207,"55.77,70.29"
2024-05-28_13-28-38.895969,"52.47,82.52"
2024-05-28_13-28-38.928697,"90.42,75.54"
2024-05-28_13-28-38.961405,"65.85,68.39"
2024-05-28_13-28-38.990151,"83.47,36.46"
2024-05-28_13-28-39.022911,"97.34,47.39"
2024-05-28_13-28-39.055692,"59.76,49.66"
2024-05-28_13-28-39.088464,"52.69,75.07"
2024-05-28_13-28-39.121260,"60.12,68.75"
2024-05-28_13-28-39.153980,"46.76,69.63"
2024-05-28_13-28-39.186671,"61.12,76.77"
2024-05-28_13-28-39.215443,"75.94,69.33"
2024-05-28_13-28-39.248239,"50.53,73.12"
2024-05-28_13-28-39.280947,"57.46,80.25"
2024-05-28_13-28-39.313741,"94.75,87.44"
2024-05-28_13-28-39.346519,"75.14,76.23"
2024-05-28_13-28-39.379254,"75.55,64.72"
2024-05-28_13-28-39.412009,"89.80,38.96"
2024-05-28_13-28-39.440694,"79.82,61.84"
2024-05-28_13-28-39.473482,"50.66,62.71"
2024-05-28_13-28-39.506257,"53.38,71.76"
2024-05-28_13-28-39.539048,"57.17,65.14"
2024-05-28_13-28-39.571835,"53.85,70.93"
2024-05-28_13-28-39.604564,"70.78,68.02"
2024-05-28_13-28-39.637288,"52.38,79.06"
2024-05-28_13-28-39.666051,"52.22,74.75"
2024-05-28_13-28-39.698765,"85.07,70.91"
2024-05-28_13-28-39.731560,"71.56,75.08"
2024-05-28_13-28-39.764309,"83.21,67.31"
2024-05-28_13-28-39.797061,"83.34,41.73"
2024-05-28_13-28-39.829784,"76.61,59.61"
2024-05-28_13-28-39.862516,"70.38,47.27"
2024-05-28_13-28-39.891314,"43.94,70.11"
2024-05-28_13-28-39.924073,"61.14,76.00"
2024-05-28_13-28-39.956814,"56.32,66.70"
2024-05-28_13-28-39.989593,"67.11,72.10"
2024-05-28_13-28-40.022346,"61.64,69.01"
2024-05-28_13-28-40.055172,"50.88,83.92"
2024-05-28_13-28-40.087819,"73.99,71.26"
2024-05-28_13-28-40.116545,"53.08,76.26"
2024-05-28_13-28-40.149337,"79.30,75.40"
2024-05-28_13-28-40.182065,"95.94,47.66"
2024-05-28_13-28-40.214829,"69.16,66.35"
2024-05-28_13-28-40.247631,"76.77,61.42"
2024-05-28_13-28-40.280370,"51.06,64.16"
2024-05-28_13-28-40.313042,"52.63,70.18"
2024-05-28_13-28-40.341835,"61.55,66.80"
2024-05-28_13-28-40.374614,"63.19,77.70"
2024-05-28_13-28-40.407381,"50.68,73.42"
2024-05-28_13-28-40.440169,"53.13,83.82"
2024-05-28_13-28-40.472881,"91.57,77.02"
2024-05-28_13-28-40.505673,"77.77,69.73"
2024-05-28_13-28-40.538373,"70.88,62.16"
2024-05-28_13-28-40.567078,"86.79,42.47"
2024-05-28_13-28-40.599857,"84.80,45.65"
2024-05-28_13-28-40.632633,"80.23,55.21"
2024-05-28_13-28-40.665420,"53.74,75.52"
2024-05-28_13-28-40.698172,"56.12,66.10"
2024-05-28_13-28-40.730921,"53.31,71.75"
2024-05-28_13-28-40.763676,"74.71,67.87"
2024-05-28_13-28-40.792376,"54.95,71.52"
2024-05-28_13-28-40.825244,"50.59,81.35"
2024-05-28_13-28-40.857945,"86.45,68.93"
2024-05-28_13-28-40.890694,"73.43,76.54"
2024-05-28_13-28-40.923491,"76.85,67.28"
2024-05-28_13-28-40.956243,"96.78,41.02"
2024-05-28_13-28-40.988925,"77.31,59.48"
2024-05-28_13-28-41.017674,"62.93,44.61"
2024-05-28_13-28-41.050474,"51.61,72.14"
2024-05-28_13-28-41.083217,"59.76,65.81"
2024-05-28_13-28-41.115993,"54.57,76.82"
2024-05-28_13-28-41.148751,"89.43,76.10"
2024-05-28_13-28-41.181518,"61.31,69.41"
2024-05-28_13-28-41.214338,"56.24,77.64"
2024-05-28_13-28-41.242995,"94.27,65.48"
2024-05-28_13-28-41.275717,"58.38,80.75"
2024-05-28_13-28-41.308638,"79.27,61.82"
2024-05-28_13-28-41.341289,"94.54,46.92"
2024-05-28_13-28-41.373997,"71.55,54.22"
2024-05-28_13-28-41.406786,"67.96,62.32"
2024-05-28_13-28-41.439570,"52.24,65.26"
2024-05-28_13-28-41.472172,"54.29,70.88"
2024-05-28_13-28-41.500992,"62.26,66.15"
2024-05-28_13-28-41.533759,"73.84,70.46"
2024-05-28_13-28-41.566520,"56.97,79.84"
2024-05-28_13-28-41.599305,"50.74,78.77"
2024-05-28_13-28-41.632104,"98.42,79.76"
2024-05-28_13-28-41.664868,"69.29,72.57"
2024-05-28_13-28-41.697567,"81.20,61.83"
2024-05-28_13-28-41.726291,"86.88,41.58"
2024-05-28_13-28-41.759049,"81.28,63.26"
2024-05-28_13-28-41.791824,"62.93,58.92"
2024-05-28_13-28-41.824568,"56.69,64.53"
2024-05-28_13-28-41.857359,"58.60,75.71"
2024-05-28_13-28-41.890086,"52.47,72.36"
2024-05-28_13-28-41.922805,"74.84,66.85"
2024-05-28_13-28-41.951552,"55.25,73.14"
2024-05-28_13-28-41.984301,"51.61,78.62"
2024-05-28_13-28-42.017082,"82.38,74.87"
2024-05-28_13-28-42.049805,"74.52,76.68"
2024-05-28_13-28-42.082635,"83.93,49.41"
2024-05-28_13-28-42.115361,"93.79,34.47"
2024-05-28_13-28-42.148105,"69.83,75.51"
2024-05-28_13-28-42.176809,"51.83,67.72"
2024-05-28_13-28-42.209577,"51.30,71.99"
2024-05-28_13-28-42.242359,"60.55,65.57"
2024-05-28_13-28-42.275121,"49.44,69.68"
2024-05-28_13-28-42.307857,"66.89,78.74"
2024-05-28_13-28-42.340696,"53.79,71.32"
2024-05-28_13-28-42.373323,"51.68,73.11"
2024-05-28_13-28-42.402122,"108.26,72.03"
2024-05-28_13-28-42.434880,"71.33,78.10"
2024-05-28_13-28-42.467643,"80.20,61.38"
2024-05-28_13-28-42.500398,"84.11,42.80"
2024-05-28_13-28-42.533186,"73.19,53.16"
2024-05-28_13-28-42.565922,"62.15,66.60"
2024-05-28_13-28-42.598611,"53.59,75.79"
2024-05-28_13-28-42.627363,"53.25,71.60"
2024-05-28_13-28-42.660187,"57.91,65.98"
2024-05-28_13-28-42.692959,"64.95,73.34"
2024-05-28_13-28-42.725693,"54.91,70.05"
2024-05-28_13-28-42.758493,"52.28,81.65"
2024-05-28_13-28-42.791165,"91.76,73.05"
2024-05-28_13-28-42.823879,"68.24,68.61"
2024-05-28_13-28-42.852639,"82.26,35.88"
2024-05-28_13-28-42.885428,"97.51,46.43"
2024-05-28_13-28-42.918207,"59.97,66.84"
2024-05-28_13-28-42.950978,"57.86,59.61"
2024-05-28_13-28-42.983713,"59.19,64.88"
2024-05-28_13-28-43.016523,"47.49,70.39"
2024-05-28_13-28-43.049243,"61.03,76.68"
2024-05-28_13-28-43.077947,"68.61,68.97"
2024-05-28_13-28-43.110699,"49.72,75.14"
2024-05-28_13-28-43.143497,"58.46,74.55"
2024-05-28_13-28-43.176238,"86.89,78.47"
2024-05-28_13-28-43.208973,"69.30,77.17"
2024-05-28_13-28-43.241812,"84.10,48.34"
2024-05-28_13-28-43.274512,"88.15,38.76"
2024-05-28_13-28-43.303214,"93.14,62.96"
2024-05-28_13-28-43.336022,"53.03,63.35"
2024-05-28_13-28-43.368749,"50.94,71.06"
2024-05-28_13-28-43.401471,"57.28,65.80"
2024-05-28_13-28-43.434268,"55.97,71.53"
2024-05-28_13-28-43.467073,"66.02,67.05"
2024-05-28_13-28-43.499806,"51.48,79.61"
2024-05-28_13-28-43.528474,"52.05,85.04"
2024-05-28_13-28-43.561260,"90.09,76.48"
2024-05-28_13-28-43.594020,"71.36,74.76"
2024-05-28_13-28-43.626772,"87.93,67.70"
2024-05-28_13-28-43.659521,"85.43,39.73"
2024-05-28_13-28-43.692392,"71.69,67.56"
2024-05-28_13-28-43.725022,"62.87,67.67"
2024-05-28_13-28-43.753792,"44.41,69.53"
2024-05-28_13-28-43.786552,"58.53,74.81"
2024-05-28_13-28-43.819311,"58.36,67.70"
2024-05-28_13-28-43.852101,"63.90,73.02"
2024-05-28_13-28-43.884820,"59.01,69.25"
2024-05-28_13-28-43.917600,"52.67,81.15"
2024-05-28_13-28-43.950359,"91.51,75.45"
2024-05-28_13-28-43.983029,"60.28,66.56"
2024-05-28_13-28-44.011777,"80.53,60.56"
2024-05-28_13-28-44.044535,"102.03,47.26"
2024-05-28_13-28-44.077341,"65.09,57.71"
2024-05-28_13-28-44.110109,"68.38,60.90"
2024-05-28_13-28-44.142884,"53.80,64.33"
2024-05-28_13-28-44.175598,"52.13,71.07"
2024-05-28_13-28-44.208348,"57.38,68.16"
2024-05-28_13-28-44.237087,"68.25,78.83"
2024-05-28_13-28-44.269842,"49.22,75.20"
2024-05-28_13-28-44.302607,"53.96,76.36"
2024-05-28_13-28-44.335410,"93.72,67.17"
2024-05-28_13-28-44.368162,"76.22,70.07"
2024-05-28_13-28-44.400900,"78.75,61.46"
2024-05-28_13-28-44.433587,"89.73,41.59"
2024-05-28_13-28-44.462395,"70.39,62.88"
2024-05-28_13-28-44.495179,"60.17,56.89"
2024-05-28_13-28-44.527896,"57.18,74.78"
2024-05-28_13-28-44.560671,"56.26,67.59"
2024-05-28_13-28-44.593431,"54.19,71.49"
2024-05-28_13-28-44.626222,"75.40,67.93"
2024-05-28_13-28-44.658857,"47.89,73.17"
2024-05-28_13-28-44.687727,"69.03,85.99"
2024-05-28_13-28-44.720506,"80.56,63.90"
2024-05-28_13-28-44.753200,"74.58,60.12"
2024-05-28_13-28-44.785967,"88.10,48.82"
2024-05-28_13-28-44.818699,"90.82,39.33"
2024-05-28_13-28-44.851470,"83.76,60.84"
2024-05-28_13-28-44.884166,"48.47,64.91"
2024-05-28_13-28-44.912932,"52.14,70.50"
2024-05-28_13-28-44.945732,"60.43,65.75"
2024-05-28_13-28-44.978448,"70.87,77.45"
2024-05-28_13-28-45.011377,"57.75,73.26"
2024-05-28_13-28-45.044004,"53.52,69.56"
2024-05-28_13-28-45.076786,"75.94,93.85"
2024-05-28_13-28-45.109493,"89.98,64.00"
2024-05-28_13-28-45.138188,"64.16,77.57"
2024-05-28_13-28-45.170954,"82.90,42.14"
2024-05-28_13-28-45.203775,"86.15,67.79"
2024-05-28_13-28-45.236499,"53.07,68.13"
2024-05-28_13-28-45.269295,"61.60,77.00"
2024-05-28_13-28-45.302079,"55.48,66.71"
2024-05-28_13-28-45.334729,"52.39,70.44"
2024-05-28_13-28-45.363483,"60.39,67.24"
2024-05-28_13-28-45.396307,"66.91,71.98"
2024-05-28_13-28-45.429044,"50.63,79.70"
2024-05-28_13-28-45.461815,"70.03,73.01"
2024-05-28_13-28-45.494544,"77.61,78.61"
2024-05-28_13-28-45.527315,"72.03,68.32"
2024-05-28_13-28-45.560081,"89.57,61.70"
2024-05-28_13-28-45.588735,"66.69,67.12"
2024-05-28_13-28-45.621559,"56.93,43.96"
2024-05-28_13-28-45.654307,"64.53,73.69"
2024-05-28_13-28-45.687080,"60.20,65.64"
2024-05-28_13-28-45.719848,"57.32,75.75"
2024-05-28_13-28-45.752667,"50.91,71.85"
2024-05-28_13-28-45.785340,"64.05,68.67"
2024-05-28_13-28-45.814033,"54.91,77.63"
2024-05-28_13-28-45.846815,"99.35,78.43"
2024-05-28_13-28-45.879592,"62.05,82.15"
2024-05-28_13-28-45.912375,"77.24,61.57"
2024-05-28_13-28-45.945098,"91.02,47.21"
2024-05-28_13-28-45.977878,"73.20,33.94"
2024-05-28_13-28-46.010572,"72.43,62.50"
2024-05-28_13-28-46.039365,"49.88,63.72"
2024-05-28_13-28-46.072087,"52.45,70.79"
2024-05-28_13-28-46.104919,"62.46,65.75"
2024-05-28_13-28-46.137598,"59.63,72.41"
2024-05-28_13-28-46.170412,"55.21,78.89"
2024-05-28_13-28-46.203177,"50.06,70.13"
2024-05-28_13-28-46.235875,"99.38,80.98"
2024-05-28_13-28-46.264575,"83.74,77.00"
2024-05-28_13-28-46.297350,"81.21,62.47"
2024-05-28_13-28-46.330171,"86.99,40.89"
2024-05-28_13-28-46.362897,"80.30,42.17"
2024-05-28_13-28-46.395671,"82.32,49.76"
2024-05-28_13-28-46.428416,"52.51,64.91"
2024-05-28_13-28-46.461163,"55.89,75.76"
2024-05-28_13-28-46.489869,"53.17,70.82"
2024-05-28_13-28-46.522638,"70.10,68.11"
2024-05-28_13-28-46.555403,"61.45,73.03"
2024-05-28_13-28-46.588184,"50.97,69.89"
2024-05-28_13-28-46.620940,"76.17,91.94"
2024-05-28_13-28-46.653710,"74.45,79.22"
2024-05-28_13-28-46.686459,"70.97,67.10"
2024-05-28_13-28-46.715290,"85.98,35.08"
2024-05-28_13-28-46.747956,"77.81,57.75"
2024-05-28_13-28-46.780689,"57.33,67.07"
2024-05-28_13-28-46.813570,"62.97,75.05"
2024-05-28_13-28-46.846307,"59.89,66.05"
2024-05-28_13-28-46.879131,"47.60,69.33"
2024-05-28_13-28-46.911672,"61.19,77.32"
2024-05-28_13-28-46.944397,"69.88,69.90"
2024-05-28_13-28-46.973204,"49.34,73.29"
2024-05-28_13-28-47.006131,"58.82,72.35"
2024-05-28_13-28-47.038987,"87.35,79.71"
2024-05-28_13-28-47.071556,"76.56,76.04"
2024-05-28_13-28-47.104694,"85.29,43.97"
2024-05-28_13-28-47.140689,"80.52,38.63"
2024-05-28_13-28-47.169744,"64.31,45.56"
2024-05-28_13-28-47.198665,"65.35,77.01"
2024-05-28_13-28-47.231293,"50.96,72.58"
2024-05-28_13-28-47.264086,"59.05,68.58"
2024-05-28_13-28-47.296828,"69.10,72.25"
2024-05-28_13-28-47.329721,"61.81,69.10"
2024-05-28_13-28-47.362277,"51.26,85.34"
2024-05-28_13-28-47.395177,"95.95,68.58"
2024-05-28_13-28-47.423841,"66.13,70.35"
2024-05-28_13-28-47.456563,"82.35,58.02"
2024-05-28_13-28-47.489305,"96.30,46.80"
2024-05-28_13-28-47.522784,"63.92,58.75"
2024-05-28_13-28-47.554874,"66.71,60.97"
2024-05-28_13-28-47.587582,"57.44,64.96"
2024-05-28_13-28-47.620312,"47.22,69.10"
2024-05-28_13-28-47.648998,"63.96,76.46"
2024-05-28_13-28-47.681800,"76.68,68.24"
2024-05-28_13-28-47.714636,"51.73,72.89"
2024-05-28_13-28-47.747401,"57.10,75.96"
2024-05-28_13-28-47.780121,"92.61,75.15"
2024-05-28_13-28-47.812883,"76.15,76.34"
2024-05-28_13-28-47.845536,"80.80,46.42"
2024-05-28_13-28-47.874294,"87.40,38.34"
2024-05-28_13-28-47.907054,"92.39,64.25"
2024-05-28_13-28-47.939870,"69.02,63.52"
2024-05-28_13-28-47.972618,"49.14,71.66"
2024-05-28_13-28-48.005409,"57.00,64.54"
2024-05-28_13-28-48.038181,"55.26,71.02"
2024-05-28_13-28-48.070904,"79.21,68.77"
2024-05-28_13-28-48.099604,"50.14,80.29"
2024-05-28_13-28-48.132459,"69.11,78.78"
2024-05-28_13-28-48.165175,"82.37,65.00"
2024-05-28_13-28-48.197922,"74.50,74.04"
2024-05-28_13-28-48.230693,"87.79,48.08"
2024-05-28_13-28-48.263615,"95.03,59.85"
2024-05-28_13-28-48.298422,"43.58,77.51"
2024-05-28_13-28-48.324892,"57.89,65.42"
2024-05-28_13-28-48.357722,"46.66,69.07"
2024-05-28_13-28-48.390438,"59.75,76.12"
2024-05-28_13-28-48.423197,"58.27,68.26"
2024-05-28_13-28-48.455928,"60.15,72.39"
2024-05-28_13-28-48.488688,"56.86,71.04"
2024-05-28_13-28-48.521423,"66.81,90.76"
2024-05-28_13-28-48.550112,"85.04,78.56"
2024-05-28_13-28-48.582902,"65.03,65.81"
2024-05-28_13-28-48.615705,"82.88,60.22"
2024-05-28_13-28-48.648486,"95.93,49.27"
2024-05-28_13-28-48.681193,"57.12,63.48"
2024-05-28_13-28-48.713965,"64.36,75.05"
2024-05-28_13-28-48.746689,"56.37,64.49"
2024-05-28_13-28-48.775467,"53.11,71.31"
2024-05-28_13-28-48.808190,"61.21,66.68"
2024-05-28_13-28-48.840963,"61.61,78.46"
2024-05-28_13-28-48.873743,"50.48,75.25"
2024-05-28_13-28-48.906465,"89.94,71.05"
2024-05-28_13-28-48.939253,"73.09,76.82"
2024-05-28_13-28-48.971995,"79.79,67.43"
2024-05-28_13-28-49.000683,"89.74,41.63"
2024-05-28_13-28-49.033485,"90.64,59.01"
2024-05-28_13-28-49.066257,"66.39,46.51"
2024-05-28_13-28-49.099019,"42.94,70.62"
2024-05-28_13-28-49.131756,"60.31,75.48"
2024-05-28_13-28-49.164644,"55.31,66.88"
2024-05-28_13-28-49.197301,"67.58,73.28"
2024-05-28_13-28-49.229992,"64.14,70.18"
2024-05-28_13-28-49.258763,"51.10,81.70"
2024-05-28_13-28-49.291515,"85.58,71.83"
2024-05-28_13-28-49.324300,"54.15,74.13"
2024-05-28_13-28-49.357078,"79.70,75.30"
2024-05-28_13-28-49.389810,"99.74,47.53"
2024-05-28_13-28-49.422560,"65.89,57.94"
2024-05-28_13-28-49.455245,"66.27,60.36"
2024-05-28_13-28-49.484035,"55.19,64.83"
2024-05-28_13-28-49.516792,"54.41,70.96"
2024-05-28_13-28-49.549561,"60.29,65.30"
2024-05-28_13-28-49.583732,"72.65,77.96"
2024-05-28_13-28-49.615207,"50.94,74.70"
2024-05-28_13-28-49.647810,"53.85,73.68"
2024-05-28_13-28-49.680611,"91.62,69.09"
2024-05-28_13-28-49.709364,"77.46,70.06"
2024-05-28_13-28-49.742160,"79.26,61.55"
2024-05-28_13-28-49.774861,"89.55,42.06"
2024-05-28_13-28-49.807604,"66.80,69.56"
2024-05-28_13-28-49.840353,"64.38,56.01"
2024-05-28_13-28-49.873056,"58.28,74.43"
2024-05-28_13-28-49.905812,"58.37,66.82"
2024-05-28_13-28-49.934591,"52.85,72.26"
2024-05-28_13-28-49.967378,"74.80,67.79"
2024-05-28_13-28-50.000114,"47.86,72.48"
2024-05-28_13-28-50.032937,"52.41,84.05"
2024-05-28_13-28-50.065678,"78.21,64.32"
2024-05-28_13-28-50.098385,"75.10,75.62"
2024-05-28_13-28-50.131125,"90.83,47.92"
2024-05-28_13-28-50.159859,"81.17,38.01"
2024-05-28_13-28-50.192621,"84.46,63.30"
2024-05-28_13-28-50.225375,"50.16,63.98"
2024-05-28_13-28-50.258177,"50.57,70.68"
2024-05-28_13-28-50.291008,"60.59,65.42"
2024-05-28_13-28-50.323668,"64.15,78.07"
2024-05-28_13-28-50.356368,"54.94,76.13"
2024-05-28_13-28-50.385146,"51.43,70.28"
2024-05-28_13-28-50.417914,"76.17,79.92"
2024-05-28_13-28-50.450663,"89.54,65.72"
2024-05-28_13-28-50.483673,"65.50,77.59"
2024-05-28_13-28-50.516225,"83.08,61.64"
2024-05-28_13-28-50.548993,"91.78,45.73"
2024-05-28_13-28-50.581671,"77.85,56.48"
2024-05-28_13-28-50.610426,"52.51,75.50"
2024-05-28_13-28-50.643191,"55.05,66.44"
2024-05-28_13-28-50.675979,"55.02,71.26"
2024-05-28_13-28-50.708749,"72.97,67.12"
2024-05-28_13-28-50.741525,"59.43,72.60"
2024-05-28_13-28-50.774227,"50.29,80.98"
2024-05-28_13-28-50.806934,"87.15,71.15"
2024-05-28_13-28-50.835674,"75.59,77.33"
2024-05-28_13-28-50.868552,"78.02,67.83"
2024-05-28_13-28-50.901246,"93.48,40.61"
2024-05-28_13-28-50.934000,"92.17,60.45"
2024-05-28_13-28-50.966788,"60.77,45.50"
2024-05-28_13-28-50.999562,"49.27,72.06"
2024-05-28_13-28-51.032250,"59.48,64.85"
2024-05-28_13-28-51.061021,"58.17,76.13"
2024-05-28_13-28-51.093758,"67.19,72.32"
2024-05-28_13-28-51.126556,"62.38,68.26"
2024-05-28_13-28-51.159285,"55.97,77.27"
2024-05-28_13-28-51.192031,"84.69,70.35"
2024-05-28_13-28-51.224818,"57.95,79.82"
2024-05-28_13-28-51.257561,"79.10,61.86"
2024-05-28_13-28-51.286265,"93.96,48.29"
2024-05-28_13-28-51.319108,"56.66,74.24"
2024-05-28_13-28-51.352088,"75.75,67.41"
2024-05-28_13-28-51.384611,"54.06,65.82"
2024-05-28_13-28-51.417320,"52.05,70.17"
2024-05-28_13-28-51.450061,"61.91,66.19"
2024-05-28_13-28-51.482857,"62.21,71.08"
2024-05-28_13-28-51.511610,"57.50,78.32"
2024-05-28_13-28-51.544279,"50.08,70.18"
2024-05-28_13-28-51.577073,"82.47,77.64"
2024-05-28_13-28-51.609826,"82.48,70.34"
2024-05-28_13-28-51.642595,"78.60,77.50"
2024-05-28_13-28-51.675362,"87.86,42.17"
2024-05-28_13-28-51.708038,"65.89,67.85"
2024-05-28_13-28-51.736828,"74.07,59.98"
2024-05-28_13-28-51.769591,"56.86,65.56"
2024-05-28_13-28-51.802329,"55.34,75.33"
2024-05-28_13-28-51.835108,"51.94,71.32"
2024-05-28_13-28-51.867872,"67.02,67.38"
2024-05-28_13-28-51.900702,"56.51,73.94"
2024-05-28_13-28-51.933401,"50.82,68.80"
2024-05-28_13-28-51.966067,"92.57,86.68"
2024-05-28_13-28-51.994830,"73.46,62.13"
2024-05-28_13-28-52.027628,"76.24,66.56"
2024-05-28_13-28-52.060406,"90.84,35.02"
2024-05-28_13-28-52.093185,"66.63,53.45"
2024-05-28_13-28-52.125913,"62.51,47.09"
2024-05-28_13-28-52.158613,"52.41,71.76"
2024-05-28_13-28-52.191334,"59.78,65.06"
2024-05-28_13-28-52.220153,"48.93,71.00"
2024-05-28_13-28-52.252900,"69.95,77.00"
2024-05-28_13-28-52.285714,"53.18,70.25"
2024-05-28_13-28-52.318433,"60.95,67.14"
2024-05-28_13-28-52.351199,"97.18,55.00"
2024-05-28_13-28-52.383952,"71.70,79.92"
2024-05-28_13-28-52.416705,"80.13,41.39"
2024-05-28_13-28-52.445410,"93.49,43.31"
2024-05-28_13-28-52.478163,"73.81,64.27"
2024-05-28_13-28-52.510932,"56.97,47.58"
2024-05-28_13-28-52.543761,"55.13,76.38"
2024-05-28_13-28-52.576481,"52.33,70.94"
2024-05-28_13-28-52.609237,"58.48,66.96"
2024-05-28_13-28-52.641931,"65.16,73.11"
2024-05-28_13-28-52.670677,"54.37,69.33"
2024-05-28_13-28-52.703471,"82.79,92.33"
2024-05-28_13-28-52.736235,"76.18,79.39"
2024-05-28_13-28-52.769025,"68.60,67.25"
2024-05-28_13-28-52.801763,"83.84,57.47"
2024-05-28_13-28-52.834549,"89.02,47.18"
2024-05-28_13-28-52.867156,"59.03,52.85"
2024-05-28_13-28-52.895941,"60.59,59.88"
2024-05-28_13-28-52.928747,"59.60,65.77"
2024-05-28_13-28-52.961554,"47.04,69.44"
2024-05-28_13-28-52.994308,"61.36,77.34"
2024-05-28_13-28-53.027058,"69.61,70.10"
2024-05-28_13-28-53.059756,"49.43,73.59"
2024-05-28_13-28-53.092491,"58.68,74.23"
2024-05-28_13-28-53.121243,"88.86,77.80"
2024-05-28_13-28-53.154028,"75.41,76.01"
2024-05-28_13-28-53.186777,"79.16,44.44"
2024-05-28_13-28-53.219565,"89.35,39.34"
2024-05-28_13-28-53.252327,"81.31,62.31"
2024-05-28_13-28-53.285048,"52.70,62.59"
2024-05-28_13-28-53.317752,"50.03,72.28"
2024-05-28_13-28-53.346516,"59.60,68.14"
2024-05-28_13-28-53.379284,"54.45,71.65"
2024-05-28_13-28-53.412072,"79.75,67.75"
2024-05-28_13-28-53.444847,"50.94,80.30"
2024-05-28_13-28-53.477608,"52.36,83.38"
2024-05-28_13-28-53.510393,"98.76,78.06"
2024-05-28_13-28-53.543069,"71.64,75.02"
2024-05-28_13-28-53.571799,"85.73,48.65"
2024-05-28_13-28-53.604642,"73.73,40.09"
2024-05-28_13-28-53.637320,"84.49,60.43"
2024-05-28_13-28-53.670083,"52.91,65.20"
2024-05-28_13-28-53.702864,"45.54,69.13"
2024-05-28_13-28-53.735651,"62.37,76.21"
2024-05-28_13-28-53.768347,"69.97,67.56"
2024-05-28_13-28-53.797083,"57.92,72.38"
2024-05-28_13-28-53.829866,"57.09,70.30"
2024-05-28_13-28-53.862724,"63.80,80.33"
2024-05-28_13-28-53.895380,"78.60,77.25"
2024-05-28_13-28-53.928144,"69.64,66.24"
2024-05-28_13-28-53.960926,"82.51,38.81"
2024-05-28_13-28-53.993675,"97.71,52.14"
2024-05-28_13-28-54.022382,"73.66,55.70"
2024-05-28_13-28-54.055158,"49.11,73.49"
2024-05-28_13-28-54.087867,"54.82,64.42"
2024-05-28_13-28-54.120726,"54.09,70.56"
2024-05-28_13-28-54.153476,"72.66,67.28"
2024-05-28_13-28-54.186251,"60.55,78.85"
2024-05-28_13-28-54.218916,"50.22,74.70"
2024-05-28_13-28-54.247677,"90.87,81.41"
2024-05-28_13-28-54.280433,"72.72,76.78"
2024-05-28_13-28-54.313164,"81.56,67.07"
2024-05-28_13-28-54.345994,"88.50,40.79"
2024-05-28_13-28-54.378731,"47.71,78.23"
2024-05-28_13-28-54.411484,"63.84,52.28"
2024-05-28_13-28-54.444210,"44.31,69.66"
2024-05-28_13-28-54.472895,"58.29,75.84"
2024-05-28_13-28-54.505743,"57.58,67.67"
2024-05-28_13-28-54.538641,"63.75,71.94"
2024-05-28_13-28-54.571354,"60.20,70.58"
2024-05-28_13-28-54.604258,"52.08,80.44"
2024-05-28_13-28-54.636899,"90.30,75.96"
2024-05-28_13-28-54.669496,"63.08,66.86"
2024-05-28_13-28-54.698214,"82.74,60.25"
2024-05-28_13-28-54.730996,"95.03,49.13"
2024-05-28_13-28-54.763832,"58.39,76.43"
2024-05-28_13-28-54.796518,"63.98,75.61"
2024-05-28_13-28-54.829370,"55.11,64.54"
2024-05-28_13-28-54.862113,"53.64,71.42"
2024-05-28_13-28-54.894737,"61.18,66.47"
2024-05-28_13-28-54.927467,"65.88,78.27"
2024-05-28_13-28-54.956304,"49.75,75.27"
2024-05-28_13-28-54.989048,"55.48,72.75"
2024-05-28_13-28-55.021754,"88.52,74.44"
2024-05-28_13-28-55.054552,"77.25,68.73"
2024-05-28_13-28-55.087357,"87.27,42.08"
2024-05-28_13-28-55.120048,"79.22,67.20"
2024-05-28_13-28-55.152769,"65.17,57.49"
2024-05-28_13-28-55.181517,"54.40,56.52"
2024-05-28_13-28-55.214333,"59.43,75.40"
2024-05-28_13-28-55.247092,"57.43,66.55"
2024-05-28_13-28-55.279814,"51.62,72.38"
2024-05-28_13-28-55.312693,"68.84,69.71"
2024-05-28_13-28-55.345301,"50.69,82.37"
2024-05-28_13-28-55.378031,"97.27,80.41"
2024-05-28_13-28-55.406805,"54.74,76.43"
2024-05-28_13-28-55.439565,"79.20,75.40"
2024-05-28_13-28-55.472354,"98.19,47.71"
2024-05-28_13-28-55.505189,"65.84,58.15"
2024-05-28_13-28-55.537878,"68.90,60.45"
2024-05-28_13-28-55.570617,"54.48,64.75"
2024-05-28_13-28-55.603296,"54.72,70.99"
2024-05-28_13-28-55.632067,"61.43,65.47"
2024-05-28_13-28-55.664828,"71.86,77.71"
2024-05-28_13-28-55.697618,"51.67,74.52"
2024-05-28_13-28-55.730413,"54.28,74.72"
2024-05-28_13-28-55.763177,"91.14,70.04"
2024-05-28_13-28-55.795861,"76.73,70.71"
2024-05-28_13-28-55.828574,"79.43,61.50"
2024-05-28_13-28-55.857366,"89.55,42.20"
2024-05-28_13-28-55.890156,"68.83,63.87"
2024-05-28_13-28-55.922911,"62.31,56.05"
2024-05-28_13-28-55.955664,"56.08,74.59"
2024-05-28_13-28-55.988408,"58.47,67.12"
2024-05-28_13-28-56.021143,"52.89,72.49"
2024-05-28_13-28-56.053899,"75.57,67.84"
2024-05-28_13-28-56.082621,"50.25,72.12"
2024-05-28_13-28-56.115420,"52.20,85.23"
2024-05-28_13-28-56.148227,"78.19,64.54"
2024-05-28_13-28-56.180940,"75.34,75.56"
2024-05-28_13-28-56.213745,"88.68,48.16"
2024-05-28_13-28-56.246451,"91.26,38.73"
2024-05-28_13-28-56.279131,"84.14,59.71"
2024-05-28_13-28-56.307898,"48.11,63.97"
2024-05-28_13-28-56.340748,"51.16,70.90"
2024-05-28_13-28-56.373448,"58.89,66.32"
2024-05-28_13-28-56.406221,"89.18,80.18"
2024-05-28_13-28-56.439004,"57.31,75.54"
2024-05-28_13-28-56.471813,"51.54,70.73"
2024-05-28_13-28-56.504410,"76.61,76.49"
2024-05-28_13-28-56.533181,"85.35,64.38"
2024-05-28_13-28-56.565945,"68.91,62.55"
2024-05-28_13-28-56.598753,"85.09,41.90"
2024-05-28_13-28-56.631514,"83.68,45.17"
2024-05-28_13-28-56.664215,"78.05,54.52"
2024-05-28_13-28-56.697022,"53.82,75.26"
2024-05-28_13-28-56.729745,"56.33,66.52"
2024-05-28_13-28-56.758456,"53.54,71.19"
2024-05-28_13-28-56.791254,"74.51,66.68"
2024-05-28_13-28-56.824037,"63.90,72.29"
2024-05-28_13-28-56.856782,"50.18,80.77"
2024-05-28_13-28-56.889511,"86.22,69.44"
2024-05-28_13-28-56.922340,"75.00,77.04"
2024-05-28_13-28-56.955045,"78.40,68.21"
2024-05-28_13-28-56.983759,"94.95,40.59"
2024-05-28_13-28-57.016517,"77.65,59.85"
2024-05-28_13-28-57.049279,"64.96,46.30"
2024-05-28_13-28-57.082108,"50.05,71.36"
2024-05-28_13-28-57.114822,"59.81,65.56"
2024-05-28_13-28-57.147658,"57.89,76.56"
2024-05-28_13-28-57.180282,"64.50,72.37"
2024-05-28_13-28-57.209031,"58.50,68.48"
2024-05-28_13-28-57.241814,"57.12,79.84"
2024-05-28_13-28-57.274565,"92.29,65.33"
2024-05-28_13-28-57.307347,"59.11,79.14"
2024-05-28_13-28-57.340118,"80.53,61.89"
2024-05-28_13-28-57.372895,"83.88,66.71"
2024-05-28_13-28-57.405619,"41.09,72.81"
2024-05-28_13-28-57.434280,"59.18,78.44"
2024-05-28_13-28-57.467063,"55.54,66.57"
2024-05-28_13-28-57.499857,"53.26,70.16"
2024-05-28_13-28-57.532644,"60.67,66.82"
2024-05-28_13-28-57.565409,"68.39,71.89"
2024-05-28_13-28-57.598162,"51.04,79.17"
2024-05-28_13-28-57.630882,"83.18,73.15"
2024-05-28_13-28-57.659613,"77.43,78.51"
2024-05-28_13-28-57.692356,"72.91,68.17"
2024-05-28_13-28-57.725129,"90.44,41.44"
2024-05-28_13-28-57.757935,"66.47,63.06"
2024-05-28_13-28-57.790683,"56.16,43.85"
2024-05-28_13-28-57.823452,"64.24,73.28"
2024-05-28_13-28-57.856165,"60.91,65.53"
2024-05-28_13-28-57.884893,"55.81,75.26"
2024-05-28_13-28-57.917641,"66.59,72.03"
2024-05-28_13-28-57.950426,"64.56,68.62"
2024-05-28_13-28-57.983221,"55.16,76.29"
2024-05-28_13-28-58.016013,"87.75,82.07"
2024-05-28_13-28-58.048765,"62.19,81.75"
2024-05-28_13-28-58.088192,"78.96,61.46"
2024-05-28_13-28-58.114558,"95.85,46.82"
2024-05-28_13-28-58.147978,"67.72,59.36"
2024-05-28_13-28-58.178472,"57.99,62.45"
2024-05-28_13-28-58.210993,"52.69,64.86"
2024-05-28_13-28-58.241265,"53.54,70.69"
2024-05-28_13-28-58.274044,"60.50,66.37"
2024-05-28_13-28-58.306718,"65.56,73.10"
2024-05-28_13-28-58.339431,"50.00,79.59"
2024-05-28_13-28-58.368274,"99.80,76.10"
2024-05-28_13-28-58.400995,"74.58,67.62"
2024-05-28_13-28-58.433785,"74.27,68.36"
2024-05-28_13-28-58.466888,"92.10,60.96"
2024-05-28_13-28-58.499302,"92.29,60.86"
2024-05-28_13-28-58.532012,"59.38,44.33"
2024-05-28_13-28-58.564737,"49.67,72.31"
2024-05-28_13-28-58.594742,"57.84,65.09"
2024-05-28_13-28-58.626355,"59.04,76.38"
2024-05-28_13-28-58.659103,"67.23,72.13"
2024-05-28_13-28-58.691838,"60.96,70.00"
2024-05-28_13-28-58.724631,"55.72,77.96"
2024-05-28_13-28-58.757257,"97.04,77.64"
2024-05-28_13-28-58.790047,"60.69,79.95"
2024-05-28_13-28-58.818810,"80.00,62.01"
2024-05-28_13-28-58.851504,"96.63,46.72"
2024-05-28_13-28-58.884264,"67.82,42.75"
2024-05-28_13-28-58.917063,"61.31,63.03"
2024-05-28_13-28-58.949864,"53.60,65.36"
2024-05-28_13-28-58.982889,"53.32,71.03"
2024-05-28_13-28-59.015298,"61.81,67.10"
2024-05-28_13-28-59.044031,"62.59,71.05"
2024-05-28_13-28-59.076874,"51.27,80.55"
2024-05-28_13-28-59.109569,"77.56,85.27"
2024-05-28_13-28-59.142367,"74.92,77.25"
2024-05-28_13-28-59.175189,"77.27,67.34"
2024-05-28_13-28-59.208018,"96.99,40.88"
2024-05-28_13-28-59.240562,"77.37,59.52"
2024-05-28_13-28-59.269459,"62.53,44.74"
2024-05-28_13-28-59.302155,"51.68,71.97"
2024-05-28_13-28-59.334892,"59.18,65.60"
2024-05-28_13-28-59.367725,"55.53,75.69"
2024-05-28_13-28-59.400425,"85.76,76.93"
2024-05-28_13-28-59.433108,"55.38,69.40"
2024-05-28_13-28-59.465893,"57.27,80.49"
2024-05-28_13-28-59.494643,"90.76,67.00"
2024-05-28_13-28-59.527368,"61.61,79.39"
2024-05-28_13-28-59.560331,"82.03,61.74"
2024-05-28_13-28-59.592915,"91.52,46.46"
2024-05-28_13-28-59.625669,"62.49,58.25"
2024-05-28_13-28-59.658451,"66.97,76.33"
2024-05-28_13-28-59.691122,"54.25,65.99"
2024-05-28_13-28-59.719891,"55.70,71.19"
2024-05-28_13-28-59.752635,"60.02,66.54"
2024-05-28_13-28-59.785439,"61.32,71.12"
2024-05-28_13-28-59.818156,"51.15,80.94"
2024-05-28_13-28-59.850958,"76.55,82.58"
2024-05-28_13-28-59.883726,"74.94,77.35"
2024-05-28_13-28-59.916430,"79.62,68.10"
2024-05-28_13-28-59.945151,"95.50,39.93"
2024-05-28_13-28-59.977900,"77.24,60.78"
2024-05-28_13-29-00.010756,"66.76,46.77"
2024-05-28_13-29-00.043483,"51.10,71.35"
2024-05-28_13-29-00.076370,"59.40,65.00"
2024-05-28_13-29-00.109064,"56.50,76.75"
2024-05-28_13-29-00.141712,"60.90,73.18"
2024-05-28_13-29-00.170405,"52.86,69.17"
2024-05-28_13-29-00.203165,"76.58,80.77"
2024-05-28_13-29-00.236021,"89.48,64.36"
2024-05-28_13-29-00.268884,"65.55,77.32"
2024-05-28_13-29-00.301511,"83.20,42.71"
2024-05-28_13-29-00.334281,"95.19,46.59"
2024-05-28_13-29-00.366958,"78.50,55.37"
2024-05-28_13-29-00.395693,"52.44,76.02"
2024-05-28_13-29-00.428489,"54.87,68.08"
2024-05-28_13-29-00.461302,"53.45,72.38"
2024-05-28_13-29-00.494022,"72.89,67.13"
2024-05-28_13-29-00.526771,"53.97,71.53"
2024-05-28_13-29-00.559529,"50.98,81.89"
2024-05-28_13-29-00.592291,"81.70,74.48"
2024-05-28_13-29-00.620957,"72.67,75.76"
2024-05-28_13-29-00.653747,"84.37,48.17"
2024-05-28_13-29-00.686484,"89.16,39.02"
2024-05-28_13-29-00.719264,"84.55,61.97"
2024-05-28_13-29-00.752048,"46.17,64.56"
2024-05-28_13-29-00.784806,"52.00,70.87"
2024-05-28_13-29-00.817550,"61.02,65.32"
2024-05-28_13-29-00.850209,"70.46,77.71"
2024-05-28_13-29-00.879004,"59.75,73.54"
2024-05-28_13-29-00.911797,"54.23,69.62"
2024-05-28_13-29-00.944547,"77.74,78.73"
2024-05-28_13-29-00.977345,"84.02,65.15"
2024-05-28_13-29-01.010090,"68.29,77.70"
2024-05-28_13-29-01.042791,"84.11,41.51"
2024-05-28_13-29-01.075524,"83.10,46.40"
2024-05-28_13-29-01.104296,"77.70,60.23"
2024-05-28_13-29-01.137121,"53.38,75.25"
2024-05-28_13-29-01.169889,"56.70,66.83"
2024-05-28_13-29-01.202602,"53.70,70.70"
2024-05-28_13-29-01.235349,"66.76,67.42"
2024-05-28_13-29-01.268141,"49.90,73.47"
2024-05-28_13-29-01.300781,"68.86,89.03"
2024-05-28_13-29-01.329646,"81.91,63.51"
2024-05-28_13-29-01.362449,"75.87,75.55"
2024-05-28_13-29-01.395193,"91.24,48.87"
2024-05-28_13-29-01.427985,"74.85,63.73"
2024-05-28_13-29-01.460635,"69.87,76.99"
2024-05-28_13-29-01.493388,"54.11,65.17"
2024-05-28_13-29-01.526113,"51.73,70.18"
2024-05-28_13-29-01.554865,"61.39,66.27"
2024-05-28_13-29-01.587678,"75.55,78.13"
2024-05-28_13-29-01.620392,"48.75,73.88"
2024-05-28_13-29-01.653157,"54.80,76.51"
2024-05-28_13-29-01.685978,"95.35,66.99"
2024-05-28_13-29-01.718693,"76.64,70.88"
2024-05-28_13-29-01.751423,"78.71,62.04"
2024-05-28_13-29-01.780174,"91.75,41.87"
2024-05-28_13-29-01.813001,"69.55,62.37"
2024-05-28_13-29-01.845861,"62.05,56.53"
2024-05-28_13-29-01.878481,"60.19,75.57"
2024-05-28_13-29-01.911247,"57.00,66.52"
2024-05-28_13-29-01.943958,"53.01,71.23"
2024-05-28_13-29-01.976663,"74.79,69.56"
2024-05-28_13-29-02.005631,"48.62,73.07"
2024-05-28_13-29-02.038280,"92.96,82.66"
2024-05-28_13-29-02.071001,"63.04,72.18"
2024-05-28_13-29-02.103744,"76.55,60.24"
2024-05-28_13-29-02.136471,"97.02,47.19"
2024-05-28_13-29-02.169260,"67.10,58.11"
2024-05-28_13-29-02.202006,"67.70,60.29"
2024-05-28_13-29-02.230703,"53.32,64.09"
2024-05-28_13-29-02.263428,"53.67,70.67"
2024-05-28_13-29-02.296423,"61.31,67.49"
2024-05-28_13-29-02.328992,"65.15,77.96"
2024-05-28_13-29-02.361762,"50.02,74.70"
2024-05-28_13-29-02.394473,"81.21,84.00"
2024-05-28_13-29-02.427201,"73.38,76.60"
2024-05-28_13-29-02.456055,"63.30,78.95"
2024-05-28_13-29-02.488731,"83.21,52.65"
2024-05-28_13-29-02.521483,"76.31,57.92"
2024-05-28_13-29-02.554329,"67.56,47.15"
2024-05-28_13-29-02.587063,"44.08,69.94"
2024-05-28_13-29-02.619802,"59.31,75.87"
2024-05-28_13-29-02.652479,"55.96,67.26"
2024-05-28_13-29-02.681263,"60.66,72.06"
2024-05-28_13-29-02.714038,"56.86,71.51"
2024-05-28_13-29-02.746811,"64.91,83.38"
2024-05-28_13-29-02.779610,"81.08,77.63"
2024-05-28_13-29-02.812366,"69.98,46.77"
2024-05-28_13-29-02.845106,"83.67,38.84"
2024-05-28_13-29-02.877792,"89.12,45.71"
2024-05-28_13-29-02.906543,"60.05,54.72"
2024-05-28_13-29-02.939315,"51.98,72.55"
2024-05-28_13-29-02.972077,"58.00,64.83"
2024-05-28_13-29-03.004834,"54.03,72.31"
2024-05-28_13-29-03.037654,"66.81,68.04"
2024-05-28_13-29-03.070364,"49.49,80.07"
2024-05-28_13-29-03.103168,"52.50,79.41"
2024-05-28_13-29-03.131786,"80.99,67.28"
2024-05-28_13-29-03.164598,"75.91,74.14"
2024-05-28_13-29-03.197322,"90.28,47.39"
2024-05-28_13-29-03.230104,"66.08,66.53"
2024-05-28_13-29-03.262859,"73.00,62.24"
2024-05-28_13-29-03.295664,"55.27,64.91"
2024-05-28_13-29-03.328338,"46.87,69.75"
2024-05-28_13-29-03.357088,"61.86,76.18"
2024-05-28_13-29-03.389839,"70.97,69.10"
2024-05-28_13-29-03.422625,"49.97,75.11"
2024-05-28_13-29-03.455405,"64.00,77.87"
2024-05-28_13-29-03.488158,"78.69,86.05"
2024-05-28_13-29-03.520930,"78.93,75.36"
2024-05-28_13-29-03.553757,"90.39,45.41"
2024-05-28_13-29-03.582380,"76.63,57.10"
2024-05-28_13-29-03.615129,"67.57,47.73"
2024-05-28_13-29-03.647932,"52.95,76.26"
2024-05-28_13-29-03.680652,"51.67,70.84"
2024-05-28_13-29-03.713462,"58.32,67.18"
2024-05-28_13-29-03.746212,"68.60,72.37"
2024-05-28_13-29-03.778956,"57.40,69.03"
2024-05-28_13-29-03.811630,"53.34,83.82"
2024-05-28_13-29-03.840471,"90.32,77.29"
2024-05-28_13-29-03.873176,"68.03,67.74"
2024-05-28_13-29-03.905921,"84.87,57.63"
2024-05-28_13-29-03.938705,"77.88,55.09"
2024-05-28_13-29-03.971482,"73.26,52.89"
2024-05-28_13-29-04.004233,"51.11,72.09"
2024-05-28_13-29-04.036950,"62.21,66.31"
2024-05-28_13-29-04.065691,"47.40,69.66"
2024-05-28_13-29-04.098486,"71.58,77.12"
2024-05-28_13-29-04.131243,"55.63,71.59"
2024-05-28_13-29-04.164019,"51.97,82.51"
2024-05-28_13-29-04.196747,"92.04,78.01"
2024-05-28_13-29-04.229514,"77.08,78.13"
2024-05-28_13-29-04.262184,"83.36,41.01"
2024-05-28_13-29-04.291009,"77.62,42.63"
2024-05-28_13-29-04.323737,"85.96,62.53"
2024-05-28_13-29-04.356541,"55.92,65.65"
2024-05-28_13-29-04.389272,"54.60,74.78"
2024-05-28_13-29-04.422121,"53.47,71.39"
2024-05-28_13-29-04.454771,"66.63,68.07"
2024-05-28_13-29-04.487460,"53.78,73.59"
2024-05-28_13-29-04.516246,"82.21,90.69"
2024-05-28_13-29-04.549010,"78.78,70.31"
2024-05-28_13-29-04.581849,"76.44,76.30"
2024-05-28_13-29-04.614601,"88.35,48.09"
2024-05-28_13-29-04.647378,"74.51,35.08"
2024-05-28_13-29-04.680107,"77.01,63.52"
2024-05-28_13-29-04.712785,"51.45,64.91"
2024-05-28_13-29-04.741528,"52.77,70.53"
2024-05-28_13-29-04.774302,"60.56,67.07"
2024-05-28_13-29-04.807151,"66.27,70.52"
2024-05-28_13-29-04.839886,"51.10,79.47"
2024-05-28_13-29-04.872611,"52.26,75.30"
2024-05-28_13-29-04.905319,"90.79,75.83"
2024-05-28_13-29-04.938103,"74.89,68.43"
2024-05-28_13-29-04.966827,"92.68,40.46"
2024-05-28_13-29-04.999619,"78.79,58.74"
2024-05-28_13-29-05.032357,"63.53,45.29"
2024-05-28_13-29-05.065163,"49.40,71.66"
2024-05-28_13-29-05.099844,"59.37,65.21"
2024-05-28_13-29-05.130817,"57.14,75.91"
2024-05-28_13-29-05.163353,"62.42,74.12"
2024-05-28_13-29-05.192143,"54.71,69.96"
2024-05-28_13-29-05.224869,"60.01,93.53"
2024-05-28_13-29-05.257617,"91.89,64.17"
2024-05-28_13-29-05.290434,"67.98,77.44"
2024-05-28_13-29-05.323163,"84.66,42.27"
2024-05-28_13-29-05.355906,"84.64,44.81"
2024-05-28_13-29-05.388689,"67.40,44.70"
2024-05-28_13-29-05.417411,"55.08,75.47"
2024-05-28_13-29-05.450157,"55.93,66.13"
2024-05-28_13-29-05.482891,"53.21,72.03"
2024-05-28_13-29-05.515678,"66.36,69.00"
2024-05-28_13-29-05.548453,"65.05,63.84"
2024-05-28_13-29-05.581204,"69.05,86.09"
2024-05-28_13-29-05.613894,"80.00,64.64"
2024-05-28_13-29-05.642637,"75.22,60.28"
2024-05-28_13-29-05.675424,"94.46,47.53"
2024-05-28_13-29-05.708171,"52.12,61.54"
2024-05-28_13-29-05.740970,"66.01,60.57"
2024-05-28_13-29-05.773736,"53.42,64.48"
2024-05-28_13-29-05.806635,"54.11,70.92"
2024-05-28_13-29-05.839248,"61.21,65.90"
2024-05-28_13-29-05.867933,"66.54,79.05"
2024-05-28_13-29-05.900766,"49.65,74.81"
2024-05-28_13-29-05.933428,"81.17,73.02"
2024-05-28_13-29-05.966222,"75.03,76.83"
2024-05-28_13-29-05.998993,"80.50,67.97"
2024-05-28_13-29-06.031761,"88.06,41.35"
2024-05-28_13-29-06.064481,"89.39,60.23"
2024-05-28_13-29-06.093186,"72.42,47.84"
2024-05-28_13-29-06.125971,"43.75,70.05"
2024-05-28_13-29-06.158744,"60.53,76.11"
2024-05-28_13-29-06.191492,"57.46,68.12"
2024-05-28_13-29-06.224252,"60.37,72.18"
2024-05-28_13-29-06.257028,"57.44,70.09"
2024-05-28_13-29-06.289796,"78.22,80.41"
2024-05-28_13-29-06.318613,"78.73,76.12"
2024-05-28_13-29-06.351345,"73.47,46.55"
2024-05-28_13-29-06.383983,"87.02,39.35"
2024-05-28_13-29-06.417330,"68.32,64.82"
2024-05-28_13-29-06.450932,"50.66,62.23"
2024-05-28_13-29-06.482590,"51.37,71.45"
2024-05-28_13-29-06.520493,"60.70,66.46"
2024-05-28_13-29-06.547766,"53.46,71.40"
2024-05-28_13-29-06.576669,"81.68,71.97"
2024-05-28_13-29-06.609311,"61.82,76.49"
2024-05-28_13-29-06.642065,"84.29,69.05"
2024-05-28_13-29-06.674841,"66.36,70.27"
2024-05-28_13-29-06.707611,"83.72,58.84"
2024-05-28_13-29-06.740319,"98.31,46.17"
2024-05-28_13-29-06.773080,"58.18,60.63"
2024-05-28_13-29-06.802200,"67.97,74.89"
2024-05-28_13-29-06.834614,"59.81,65.31"
2024-05-28_13-29-06.867338,"48.02,69.53"
2024-05-28_13-29-06.900112,"72.41,77.19"
2024-05-28_13-29-06.932903,"54.82,71.22"
2024-05-28_13-29-06.965592,"51.81,73.75"
2024-05-28_13-29-06.998330,"86.93,73.59"
2024-05-28_13-29-07.027120,"73.11,78.24"
2024-05-28_13-29-07.059952,"80.84,61.37"
2024-05-28_13-29-07.092685,"75.20,44.12"
2024-05-28_13-29-07.126899,"69.13,60.92"
2024-05-28_13-29-07.158257,"52.30,65.36"
2024-05-28_13-29-07.190856,"55.82,75.39"
2024-05-28_13-29-07.223590,"51.28,72.25"
2024-05-28_13-29-07.252352,"68.65,66.72"
2024-05-28_13-29-07.285171,"58.66,72.75"
2024-05-28_13-29-07.317935,"50.96,69.55"
2024-05-28_13-29-07.350985,"102.29,84.05"
2024-05-28_13-29-07.383500,"73.24,77.10"
2024-05-28_13-29-07.416235,"80.00,48.14"
2024-05-28_13-29-07.448873,"83.55,34.80"
2024-05-28_13-29-07.477634,"86.88,62.28"
2024-05-28_13-29-07.510388,"50.48,63.85"
2024-05-28_13-29-07.543247,"51.43,71.02"
2024-05-28_13-29-07.575971,"60.57,67.64"
2024-05-28_13-29-07.608778,"83.78,72.76"
2024-05-28_13-29-07.641443,"55.14,80.00"
2024-05-28_13-29-07.674151,"51.23,77.61"
2024-05-28_13-29-07.702898,"93.39,70.23"
2024-05-28_13-29-07.735708,"70.41,69.99"
2024-05-28_13-29-07.768499,"88.10,61.72"
2024-05-28_13-29-07.801324,"91.30,41.32"
2024-05-28_13-29-07.834073,"58.11,44.64"
2024-05-28_13-29-07.866722,"50.84,73.31"
2024-05-28_13-29-07.899462,"59.32,65.03"
2024-05-28_13-29-07.928263,"57.29,77.25"
2024-05-28_13-29-07.960975,"64.58,73.22"
2024-05-28_13-29-07.993757,"55.10,69.10"
2024-05-28_13-29-08.026505,"61.18,94.63"
2024-05-28_13-29-08.059286,"89.30,65.63"
2024-05-28_13-29-08.092088,"68.19,77.58"
2024-05-28_13-29-08.124696,"84.86,41.28"
2024-05-28_13-29-08.153471,"85.64,46.32"
2024-05-28_13-29-08.186266,"71.06,69.36"
2024-05-28_13-29-08.219034,"55.03,74.94"
2024-05-28_13-29-08.251783,"56.89,67.29"
2024-05-28_13-29-08.284583,"53.66,71.08"
2024-05-28_13-29-08.317317,"74.80,68.10"
2024-05-28_13-29-08.350020,"49.56,74.87"
2024-05-28_13-29-08.378859,"89.69,83.49"
2024-05-28_13-29-08.411612,"61.05,69.92"
2024-05-28_13-29-08.444318,"80.37,40.41"
2024-05-28_13-29-08.477091,"95.35,49.22"
2024-05-28_13-29-08.509849,"59.05,65.33"
2024-05-28_13-29-08.542653,"51.48,73.17"
2024-05-28_13-29-08.575264,"59.48,65.56"
2024-05-28_13-29-08.604071,"67.70,74.26"
2024-05-28_13-29-08.636798,"81.75,68.35"
2024-05-28_13-29-08.669576,"54.93,80.15"
2024-05-28_13-29-08.702391,"51.78,85.79"
2024-05-28_13-29-08.735116,"87.26,77.15"
2024-05-28_13-29-08.767890,"76.46,73.86"
2024-05-28_13-29-08.800640,"91.03,47.82"
2024-05-28_13-29-08.829551,"79.22,65.86"
2024-05-28_13-29-08.862155,"64.63,61.43"
2024-05-28_13-29-08.894885,"56.36,64.84"
2024-05-28_13-29-08.927609,"46.43,69.12"
2024-05-28_13-29-08.960379,"62.04,76.83"
2024-05-28_13-29-08.993154,"67.87,69.16"
2024-05-28_13-29-09.026052,"50.47,73.42"
2024-05-28_13-29-09.054654,"81.15,86.06"
2024-05-28_13-29-09.087428,"73.22,80.50"
2024-05-28_13-29-09.120209,"79.14,61.47"
2024-05-28_13-29-09.152906,"85.14,44.71"
2024-05-28_13-29-09.185722,"71.70,37.90"
2024-05-28_13-29-09.218461,"49.99,65.85"
2024-05-28_13-29-09.251212,"57.52,76.19"
2024-05-28_13-29-09.279918,"53.00,71.01"
2024-05-28_13-29-09.312660,"64.28,66.73"
2024-05-28_13-29-09.345401,"56.83,73.15"
2024-05-28_13-29-09.378171,"52.53,73.09"
2024-05-28_13-29-09.410967,"78.39,74.26"
2024-05-28_13-29-09.443766,"77.47,76.66"
2024-05-28_13-29-09.476409,"94.45,47.62"
2024-05-28_13-29-09.509170,"84.86,53.48"
2024-05-28_13-29-09.537936,"67.16,62.10"
2024-05-28_13-29-09.570673,"52.91,65.94"
2024-05-28_13-29-09.603453,"50.43,73.65"
2024-05-28_13-29-09.636276,"74.27,66.17"
2024-05-28_13-29-09.668998,"59.19,71.33"
2024-05-28_13-29-09.701815,"50.91,81.49"
2024-05-28_13-29-09.734396,"83.41,69.94"
2024-05-28_13-29-09.763226,"72.83,77.24"
2024-05-28_13-29-09.796092,"86.14,48.10"
2024-05-28_13-29-09.828748,"79.04,39.32"
2024-05-28_13-29-09.861544,"84.39,59.92"
2024-05-28_13-29-09.894375,"47.95,63.91"
2024-05-28_13-29-09.926954,"51.60,70.40"
2024-05-28_13-29-09.959701,"61.48,65.39"
2024-05-28_13-29-09.988473,"61.66,78.92"
2024-05-28_13-29-10.021246,"51.96,74.27"
2024-05-28_13-29-10.054034,"54.02,74.50"
2024-05-28_13-29-10.086754,"92.46,69.33"
2024-05-28_13-29-10.119474,"77.52,68.47"
2024-05-28_13-29-10.152408,"87.50,41.72"
2024-05-28_13-29-10.184985,"89.40,59.60"
2024-05-28_13-29-10.213746,"69.28,47.51"
2024-05-28_13-29-10.246505,"43.90,70.18"
2024-05-28_13-29-10.279345,"60.34,76.09"
2024-05-28_13-29-10.312076,"55.72,68.00"
2024-05-28_13-29-10.344835,"58.95,72.48"
2024-05-28_13-29-10.377553,"55.10,70.35"
2024-05-28_13-29-10.410333,"78.07,80.36"
2024-05-28_13-29-10.439042,"78.20,76.17"
2024-05-28_13-29-10.471761,"76.21,45.14"
2024-05-28_13-29-10.504548,"89.20,38.96"
2024-05-28_13-29-10.537356,"68.99,64.00"
2024-05-28_13-29-10.571893,"58.02,62.72"
2024-05-28_13-29-10.602808,"51.58,74.98"
2024-05-28_13-29-10.635576,"59.63,65.63"
2024-05-28_13-29-10.664453,"65.38,72.22"
2024-05-28_13-29-10.697060,"57.64,70.57"
2024-05-28_13-29-10.729817,"76.56,84.52"
2024-05-28_13-29-10.762617,"74.86,77.88"
2024-05-28_13-29-10.795445,"74.37,49.45"
2024-05-28_13-29-10.828136,"91.04,57.61"
2024-05-28_13-29-10.860833,"79.43,45.76"
2024-05-28_13-29-10.889609,"67.86,64.80"
2024-05-28_13-29-10.922380,"53.14,71.56"
2024-05-28_13-29-10.955157,"62.36,65.72"
2024-05-28_13-29-10.987903,"60.91,71.52"
2024-05-28_13-29-11.020658,"55.48,79.58"
2024-05-28_13-29-11.053421,"51.45,75.13"
2024-05-28_13-29-11.086195,"93.56,70.68"
2024-05-28_13-29-11.114902,"72.12,68.58"
2024-05-28_13-29-11.147645,"89.35,41.50"
2024-05-28_13-29-11.180407,"90.86,60.13"
2024-05-28_13-29-11.213179,"61.85,45.61"
2024-05-28_13-29-11.245949,"51.40,71.74"
2024-05-28_13-29-11.278734,"59.01,65.62"
2024-05-28_13-29-11.311425,"58.69,77.36"
2024-05-28_13-29-11.340230,"60.46,72.42"
2024-05-28_13-29-11.372926,"54.33,69.61"
2024-05-28_13-29-11.405690,"79.23,77.90"
2024-05-28_13-29-11.438486,"79.81,67.82"
2024-05-28_13-29-11.471276,"73.69,62.05"
2024-05-28_13-29-11.504045,"89.19,42.39"
2024-05-28_13-29-11.536688,"68.81,64.82"
2024-05-28_13-29-11.565416,"67.11,56.38"
2024-05-28_13-29-11.598164,"57.40,74.92"
2024-05-28_13-29-11.630970,"57.97,68.93"
2024-05-28_13-29-11.663728,"86.79,75.62"
2024-05-28_13-29-11.696504,"58.09,69.32"
2024-05-28_13-29-11.729265,"66.45,93.61"
2024-05-28_13-29-11.762024,"84.69,78.36"
2024-05-28_13-29-11.790747,"70.40,65.84"
2024-05-28_13-29-11.823517,"88.38,40.00"
2024-05-28_13-29-11.856273,"80.30,65.93"
2024-05-28_13-29-11.889009,"52.09,62.76"
2024-05-28_13-29-11.921868,"53.69,71.93"
2024-05-28_13-29-11.954567,"58.31,64.93"
2024-05-28_13-29-11.987277,"52.87,71.28"
2024-05-28_13-29-12.015982,"64.15,68.53"
2024-05-28_13-29-12.048752,"51.89,83.63"
2024-05-28_13-29-12.081537,"90.20,78.09"
2024-05-28_13-29-12.114303,"73.35,67.95"
2024-05-28_13-29-12.147044,"87.81,35.05"
2024-05-28_13-29-12.179814,"78.91,65.73"
2024-05-28_13-29-12.212568,"67.34,49.45"
2024-05-28_13-29-12.245256,"50.77,71.55"
2024-05-28_13-29-12.274032,"60.50,65.65"
2024-05-28_13-29-12.306831,"64.25,70.13"
2024-05-28_13-29-12.339565,"59.32,80.05"
2024-05-28_13-29-12.372374,"50.59,78.65"
2024-05-28_13-29-12.405130,"81.70,70.42"
2024-05-28_13-29-12.437801,"69.83,70.06"
2024-05-28_13-29-12.470533,"90.48,40.47"
2024-05-28_13-29-12.499354,"78.48,58.94"
2024-05-28_13-29-12.532090,"61.99,44.93"
2024-05-28_13-29-12.564877,"50.32,71.57"
2024-05-28_13-29-12.597629,"59.89,65.63"
2024-05-28_13-29-12.630421,"69.17,76.39"
2024-05-28_13-29-12.663140,"83.15,77.56"
2024-05-28_13-29-12.695840,"61.53,80.09"
2024-05-28_13-29-12.724574,"87.77,78.41"
2024-05-28_13-29-12.757358,"76.96,71.35"
2024-05-28_13-29-12.790145,"80.44,61.46"
2024-05-28_13-29-12.822909,"79.33,67.41"
2024-05-28_13-29-12.855686,"63.02,46.75"
2024-05-28_13-29-12.888459,"42.20,71.51"
2024-05-28_13-29-12.921118,"59.80,75.04"
2024-05-28_13-29-12.949838,"57.67,68.19"
2024-05-28_13-29-12.982614,"63.18,73.15"
2024-05-28_13-29-13.015395,"56.03,70.33"
2024-05-28_13-29-13.048171,"64.50,81.80"
2024-05-28_13-29-13.080939,"77.78,77.07"
2024-05-28_13-29-13.113688,"75.24,65.05"
2024-05-28_13-29-13.146442,"86.62,38.35"
2024-05-28_13-29-13.175233,"81.63,63.44"
2024-05-28_13-29-13.207932,"55.72,62.63"
2024-05-28_13-29-13.240704,"51.53,71.72"
2024-05-28_13-29-13.273477,"58.64,66.23"
2024-05-28_13-29-13.306300,"65.75,71.97"
2024-05-28_13-29-13.338947,"55.70,69.97"
2024-05-28_13-29-13.371666,"87.42,83.23"
2024-05-28_13-29-13.400501,"73.08,77.54"
2024-05-28_13-29-13.433200,"78.30,48.82"
2024-05-28_13-29-13.465928,"82.85,34.92"
2024-05-28_13-29-13.498765,"83.70,62.25"
2024-05-28_13-29-13.531491,"51.07,63.74"
2024-05-28_13-29-13.564215,"51.75,70.85"
2024-05-28_13-29-13.596915,"62.52,66.92"
2024-05-28_13-29-13.625713,"72.11,70.45"
2024-05-28_13-29-13.658458,"71.69,85.48"
2024-05-28_13-29-13.691233,"74.75,73.88"
2024-05-28_13-29-13.724007,"76.20,78.18"
2024-05-28_13-29-13.756805,"78.83,67.52"
2024-05-28_13-29-13.789580,"99.61,40.88"
2024-05-28_13-29-13.822348,"72.79,61.25"
2024-05-28_13-29-13.851107,"45.73,64.84"
2024-05-28_13-29-13.883805,"52.71,71.30"
2024-05-28_13-29-13.916573,"61.70,64.86"
2024-05-28_13-29-13.949314,"64.68,78.10"
2024-05-28_13-29-13.982098,"55.07,74.40"
2024-05-28_13-29-14.014833,"53.79,77.41"
2024-05-28_13-29-14.047545,"91.54,69.25"
2024-05-28_13-29-14.076273,"80.01,69.07"
2024-05-28_13-29-14.109047,"87.55,41.36"
2024-05-28_13-29-14.141828,"75.87,63.66"
2024-05-28_13-29-14.174556,"63.01,49.22"
2024-05-28_13-29-14.207348,"43.19,69.87"
2024-05-28_13-29-14.240095,"60.61,75.34"
2024-05-28_13-29-14.272806,"66.90,69.33"
2024-05-28_13-29-14.301524,"51.98,72.60"
2024-05-28_13-29-14.334333,"58.05,74.71"
2024-05-28_13-29-14.367062,"88.49,77.18"
2024-05-28_13-29-14.399836,"77.19,60.89"
2024-05-28_13-29-14.432630,"86.70,44.20"
2024-05-28_13-29-14.465385,"77.48,56.67"
2024-05-28_13-29-14.498105,"70.41,47.73"
2024-05-28_13-29-14.530805,"52.37,75.08"
2024-05-28_13-29-14.559600,"52.45,71.45"
2024-05-28_13-29-14.592363,"71.66,67.35"
2024-05-28_13-29-14.625108,"59.85,73.81"
2024-05-28_13-29-14.657905,"59.73,89.46"
2024-05-28_13-29-14.690701,"78.60,84.23"
2024-05-28_13-29-14.723411,"77.57,75.88"
2024-05-28_13-29-14.756087,"87.14,48.20"
2024-05-28_13-29-14.784899,"58.79,63.29"
2024-05-28_13-29-14.817680,"64.68,62.26"
2024-05-28_13-29-14.850422,"52.16,65.14"
2024-05-28_13-29-14.883165,"52.77,70.57"
2024-05-28_13-29-14.915949,"60.50,68.08"
2024-05-28_13-29-14.948662,"56.52,70.92"
2024-05-28_13-29-14.981326,"51.57,81.01"
2024-05-28_13-29-15.010177,"91.53,75.45"
2024-05-28_13-29-15.042889,"74.31,74.99"
2024-05-28_13-29-15.075691,"91.73,48.13"
2024-05-28_13-29-15.108509,"67.81,67.55"
2024-05-28_13-29-15.141224,"65.34,60.42"
2024-05-28_13-29-15.174010,"54.87,64.10"
2024-05-28_13-29-15.206666,"52.15,71.29"
2024-05-28_13-29-15.235432,"60.74,66.65"
2024-05-28_13-29-15.268184,"56.73,79.00"
2024-05-28_13-29-15.300929,"51.99,75.45"
2024-05-28_13-29-15.333780,"88.40,64.70"
2024-05-28_13-29-15.366498,"75.84,74.02"
2024-05-28_13-29-15.399212,"90.87,47.57"
2024-05-28_13-29-15.432013,"78.88,58.52"
2024-05-28_13-29-15.460699,"66.41,60.02"
2024-05-28_13-29-15.493526,"57.62,64.70"
2024-05-28_13-29-15.526296,"47.13,70.67"
2024-05-28_13-29-15.559013,"74.95,77.08"
2024-05-28_13-29-15.591840,"57.26,69.75"
2024-05-28_13-29-15.624585,"52.12,75.30"
2024-05-28_13-29-15.657292,"86.93,75.04"
2024-05-28_13-29-15.686034,"73.27,79.08"
2024-05-28_13-29-15.718804,"62.39,62.31"
2024-05-28_13-29-15.751528,"47.80,70.30"
2024-05-28_13-29-15.784336,"64.06,58.33"
2024-05-28_13-29-15.817101,"58.44,64.90"
2024-05-28_13-29-15.849882,"57.14,75.97"
2024-05-28_13-29-15.882686,"67.29,71.94"
2024-05-28_13-29-15.911337,"59.95,70.69"
2024-05-28_13-29-15.944070,"57.91,82.95"
2024-05-28_13-29-15.976797,"97.24,65.26"
2024-05-28_13-29-16.009600,"69.20,62.76"
2024-05-28_13-29-16.042323,"87.48,42.99"
2024-05-28_13-29-16.075113,"71.84,66.86"
2024-05-28_13-29-16.107783,"55.13,56.02"
2024-05-28_13-29-16.136528,"58.12,75.36"
2024-05-28_13-29-16.169293,"58.48,66.37"
2024-05-28_13-29-16.202106,"52.54,72.51"
2024-05-28_13-29-16.234851,"65.41,69.78"
2024-05-28_13-29-16.267631,"68.94,81.82"
2024-05-28_13-29-16.300403,"88.48,78.65"
2024-05-28_13-29-16.333098,"70.33,65.65"
2024-05-28_13-29-16.361820,"85.33,38.70"
2024-05-28_13-29-16.394702,"82.17,66.00"
2024-05-28_13-29-16.427410,"53.14,62.65"
2024-05-28_13-29-16.460175,"50.53,71.43"
2024-05-28_13-29-16.492938,"57.37,65.32"
2024-05-28_13-29-16.525683,"67.89,73.25"
2024-05-28_13-29-16.558396,"60.80,69.91"
2024-05-28_13-29-16.591106,"75.13,85.49"
2024-05-28_13-29-16.619829,"73.52,77.19"
2024-05-28_13-29-16.652640,"80.76,49.36"
2024-05-28_13-29-16.685432,"79.99,56.02"
2024-05-28_13-29-16.718176,"47.90,79.08"
2024-05-28_13-29-16.750951,"56.75,66.48"
2024-05-28_13-29-16.783658,"53.21,70.43"
2024-05-28_13-29-16.816408,"61.71,67.64"
2024-05-28_13-29-16.845189,"66.15,72.13"
2024-05-28_13-29-16.877927,"50.78,79.77"
2024-05-28_13-29-16.910667,"82.97,71.21"
2024-05-28_13-29-16.943474,"73.73,75.33"
2024-05-28_13-29-16.976317,"85.64,48.61"
2024-05-28_13-29-17.009218,"80.15,39.11"
2024-05-28_13-29-17.041843,"79.28,73.57"
2024-05-28_13-29-17.070563,"53.10,63.79"
2024-05-28_13-29-17.103232,"53.36,70.66"
2024-05-28_13-29-17.135966,"63.15,66.71"
2024-05-28_13-29-17.168722,"56.53,78.65"
2024-05-28_13-29-17.201507,"51.42,74.76"
2024-05-28_13-29-17.234204,"82.66,77.05"
2024-05-28_13-29-17.266948,"74.19,73.91"
2024-05-28_13-29-17.295818,"88.68,48.50"
2024-05-28_13-29-17.328496,"79.65,40.40"
2024-05-28_13-29-17.361246,"63.06,60.63"
2024-05-28_13-29-17.393985,"56.41,65.06"
2024-05-28_13-29-17.426787,"47.47,69.47"
2024-05-28_13-29-17.459474,"62.09,78.17"
2024-05-28_13-29-17.492234,"61.89,69.15"
2024-05-28_13-29-17.521010,"51.74,74.21"
2024-05-28_13-29-17.553762,"86.56,75.40"
2024-05-28_13-29-17.586514,"77.23,77.48"
2024-05-28_13-29-17.619262,"85.18,41.98"
2024-05-28_13-29-17.652073,"68.22,43.34"
2024-05-28_13-29-17.684788,"63.95,58.95"
2024-05-28_13-29-17.717495,"57.28,66.47"
2024-05-28_13-29-17.746240,"55.75,77.33"
2024-05-28_13-29-17.779017,"66.01,73.83"
2024-05-28_13-29-17.811843,"57.12,68.89"
2024-05-28_13-29-17.844603,"60.60,94.38"
2024-05-28_13-29-17.877349,"90.12,63.62"
2024-05-28_13-29-17.910135,"69.99,77.35"
2024-05-28_13-29-17.942787,"87.80,41.91"
2024-05-28_13-29-17.971593,"84.87,63.23"
2024-05-28_13-29-18.004522,"58.29,56.14"
2024-05-28_13-29-18.037124,"57.41,74.87"
2024-05-28_13-29-18.069842,"56.59,67.87"
2024-05-28_13-29-18.102668,"68.53,72.22"
2024-05-28_13-29-18.135362,"60.77,69.56"
2024-05-28_13-29-18.168071,"67.06,81.79"
2024-05-28_13-29-18.196844,"86.86,78.02"
2024-05-28_13-29-18.229583,"67.57,65.64"
2024-05-28_13-29-18.262402,"83.86,38.32"
2024-05-28_13-29-18.295177,"77.98,70.37"
2024-05-28_13-29-18.327937,"52.41,62.14"
2024-05-28_13-29-18.360732,"49.86,71.77"
2024-05-28_13-29-18.393349,"58.66,65.78"
2024-05-28_13-29-18.422072,"53.23,71.40"
2024-05-28_13-29-18.454934,"60.89,69.36"
2024-05-28_13-29-18.487645,"52.87,83.32"
2024-05-28_13-29-18.520484,"77.04,79.00"
2024-05-28_13-29-18.553196,"70.12,66.89"
2024-05-28_13-29-18.586002,"91.08,35.26"
2024-05-28_13-29-18.618643,"80.23,45.94"
2024-05-28_13-29-18.647352,"54.08,63.78"
2024-05-28_13-29-18.680265,"51.07,71.18"
2024-05-28_13-29-18.712945,"60.72,68.16"
2024-05-28_13-29-18.746125,"83.01,72.69"
2024-05-28_13-29-18.778602,"52.93,80.41"
2024-05-28_13-29-18.811466,"82.36,74.56"
2024-05-28_13-29-18.843955,"76.92,77.76"
2024-05-28_13-29-18.872715,"78.01,49.72"
2024-05-28_13-29-18.905433,"87.92,61.05"
2024-05-28_13-29-18.938232,"71.72,64.97"
2024-05-28_13-29-18.970982,"47.77,64.32"
2024-05-28_13-29-19.003755,"52.09,71.19"
2024-05-28_13-29-19.036473,"61.74,65.36"
2024-05-28_13-29-19.069221,"77.52,78.25"
2024-05-28_13-29-19.098371,"50.68,74.74"
2024-05-28_13-29-19.130812,"79.91,73.53"
2024-05-28_13-29-19.163541,"75.64,77.05"
2024-05-28_13-29-19.196254,"84.20,67.69"
2024-05-28_13-29-19.229051,"82.18,40.43"
2024-05-28_13-29-19.261762,"73.14,65.22"
2024-05-28_13-29-19.294518,"53.42,65.39"
2024-05-28_13-29-19.327200,"46.33,69.14"
2024-05-28_13-29-19.355993,"60.57,76.69"
2024-05-28_13-29-19.388750,"72.71,69.95"
2024-05-28_13-29-19.421529,"49.38,73.75"
2024-05-28_13-29-19.454296,"79.71,75.75"
2024-05-28_13-29-19.487080,"74.28,80.01"
2024-05-28_13-29-19.519757,"79.73,61.20"
2024-05-28_13-29-19.552518,"87.29,43.17"
2024-05-28_13-29-19.581232,"86.92,58.28"
2024-05-28_13-29-19.614030,"54.81,65.45"
2024-05-28_13-29-19.646813,"55.17,74.95"
2024-05-28_13-29-19.679580,"52.06,73.05"
2024-05-28_13-29-19.712324,"91.35,71.30"
2024-05-28_13-29-19.745091,"73.93,81.03"
2024-05-28_13-29-19.778078,"93.09,65.52"
2024-05-28_13-29-19.806670,"62.50,79.05"
2024-05-28_13-29-19.839367,"82.79,61.52"
2024-05-28_13-29-19.872133,"82.04,46.16"
2024-05-28_13-29-19.904836,"67.08,62.17"
2024-05-28_13-29-19.937613,"55.05,74.68"
2024-05-28_13-29-19.970348,"57.61,66.47"
2024-05-28_13-29-20.003075,"55.28,72.07"
2024-05-28_13-29-20.031834,"68.82,68.39"
2024-05-28_13-29-20.064576,"51.69,80.99"
2024-05-28_13-29-20.097360,"91.12,76.36"
2024-05-28_13-29-20.130137,"65.45,66.69"
2024-05-28_13-29-20.162909,"82.77,39.46"
2024-05-28_13-29-20.195631,"88.59,46.80"
2024-05-28_13-29-20.228367,"67.62,69.71"
2024-05-28_13-29-20.257136,"51.35,71.72"
2024-05-28_13-29-20.289879,"60.62,66.24"
2024-05-28_13-29-20.322670,"53.14,71.75"
2024-05-28_13-29-20.355432,"64.61,68.25"
2024-05-28_13-29-20.388168,"51.60,83.53"
2024-05-28_13-29-20.420918,"92.63,72.39"
2024-05-28_13-29-20.453663,"69.00,68.21"
2024-05-28_13-29-20.482403,"89.48,35.58"
2024-05-28_13-29-20.515135,"66.37,52.29"
2024-05-28_13-29-20.547930,"67.58,47.62"
2024-05-28_13-29-20.580707,"52.62,71.77"
2024-05-28_13-29-20.632358,"61.80,65.70"
2024-05-28_13-29-20.648062,"60.92,71.77"
2024-05-28_13-29-20.679443,"55.63,78.50"
2024-05-28_13-29-20.715064,"71.77,80.18"
2024-05-28_13-29-20.740734,"85.55,68.24"
2024-05-28_13-29-20.773255,"73.56,69.07"
2024-05-28_13-29-20.806009,"95.42,61.53"
2024-05-28_13-29-20.838777,"75.31,66.06"
2024-05-28_13-29-20.871572,"57.13,46.62"
2024-05-28_13-29-20.904148,"51.97,70.96"
2024-05-28_13-29-20.932912,"59.76,66.40"
2024-05-28_13-29-20.965687,"66.09,77.04"
2024-05-28_13-29-20.998453,"54.04,73.29"
2024-05-28_13-29-21.031242,"53.30,76.52"
2024-05-28_13-29-21.064007,"91.03,71.02"
2024-05-28_13-29-21.096829,"80.44,68.26"
2024-05-28_13-29-21.129462,"93.39,39.82"
2024-05-28_13-29-21.158221,"72.33,40.85"
2024-05-28_13-29-21.191033,"52.07,65.55"
2024-05-28_13-29-21.223783,"44.54,70.07"
2024-05-28_13-29-21.256561,"61.51,75.80"
2024-05-28_13-29-21.289301,"62.45,68.62"
2024-05-28_13-29-21.322350,"49.47,74.52"
2024-05-28_13-29-21.354970,"59.41,73.99"
2024-05-28_13-29-21.383574,"75.36,81.15"
2024-05-28_13-29-21.416292,"78.29,60.81"
2024-05-28_13-29-21.449043,"73.01,44.30"
2024-05-28_13-29-21.481807,"72.17,60.60"
2024-05-28_13-29-21.514570,"53.01,64.68"
2024-05-28_13-29-21.547495,"57.64,75.80"
2024-05-28_13-29-21.580021,"52.52,71.60"
2024-05-28_13-29-21.608754,"76.29,67.19"
2024-05-28_13-29-21.641512,"54.36,75.12"
2024-05-28_13-29-21.674290,"89.85,72.24"
2024-05-28_13-29-21.707086,"59.59,80.37"
2024-05-28_13-29-21.739854,"72.89,60.52"
2024-05-28_13-29-21.772636,"66.60,69.05"
2024-05-28_13-29-21.805327,"63.33,37.02"
2024-05-28_13-29-21.834059,"52.74,75.31"
2024-05-28_13-29-21.866853,"55.87,66.84"
2024-05-28_13-29-21.899577,"53.88,70.46"
2024-05-28_13-29-21.932372,"79.41,69.49"
2024-05-28_13-29-21.965132,"49.78,73.75"
2024-05-28_13-29-21.997879,"88.82,83.64"
2024-05-28_13-29-22.030620,"62.99,70.58"
2024-05-28_13-29-22.063317,"80.08,60.46"
2024-05-28_13-29-22.092056,"93.58,49.68"
2024-05-28_13-29-22.124836,"59.35,63.97"
2024-05-28_13-29-22.157631,"51.69,73.64"
2024-05-28_13-29-22.190389,"56.16,64.81"
2024-05-28_13-29-22.223226,"55.12,72.11"
2024-05-28_13-29-22.255858,"76.83,68.34"
2024-05-28_13-29-22.288627,"49.66,86.50"
2024-05-28_13-29-22.317389,"82.51,71.23"
2024-05-28_13-29-22.350149,"69.38,69.78"
2024-05-28_13-29-22.382989,"85.46,35.70"
2024-05-28_13-29-22.415665,"90.78,64.82"
2024-05-28_13-29-22.448440,"67.12,49.93"
2024-05-28_13-29-22.481159,"52.10,71.40"
2024-05-28_13-29-22.513900,"61.23,65.50"
2024-05-28_13-29-22.542654,"59.66,71.22"
2024-05-28_13-29-22.575418,"53.36,79.86"
2024-05-28_13-29-22.608204,"69.43,73.23"
2024-05-28_13-29-22.640986,"76.63,77.81"
2024-05-28_13-29-22.673724,"79.46,67.53"
2024-05-28_13-29-22.706489,"97.53,39.88"
2024-05-28_13-29-22.739133,"72.19,67.03"
2024-05-28_13-29-22.767937,"54.08,64.88"
2024-05-28_13-29-22.800687,"45.60,73.51"
2024-05-28_13-29-22.833600,"61.32,65.49"
2024-05-28_13-29-22.866286,"75.58,78.43"
2024-05-28_13-29-22.899008,"48.73,73.85"
2024-05-28_13-29-22.931822,"76.88,76.20"
2024-05-28_13-29-22.964486,"72.61,76.68"
2024-05-28_13-29-22.993215,"84.99,49.20"
2024-05-28_13-29-23.026011,"74.83,40.29"
2024-05-28_13-29-23.058774,"86.12,60.23"
2024-05-28_13-29-23.091492,"54.41,64.68"
2024-05-28_13-29-23.124300,"45.50,69.19"
2024-05-28_13-29-23.157070,"62.15,76.75"
2024-05-28_13-29-23.189739,"68.41,69.09"
2024-05-28_13-29-23.218488,"50.52,73.15"
2024-05-28_13-29-23.251476,"88.70,72.20"
2024-05-28_13-29-23.284037,"73.95,79.27"
2024-05-28_13-29-23.316804,"81.77,42.10"
2024-05-28_13-29-23.349578,"78.22,43.76"
2024-05-28_13-29-23.382358,"74.79,48.92"
2024-05-28_13-29-23.415096,"54.94,64.58"
2024-05-28_13-29-23.443793,"56.91,75.73"
2024-05-28_13-29-23.476557,"51.47,72.81"
2024-05-28_13-29-23.509340,"67.21,67.77"
2024-05-28_13-29-23.542077,"56.38,77.75"
2024-05-28_13-29-23.574864,"93.52,65.65"
2024-05-28_13-29-23.607579,"60.11,79.05"
2024-05-28_13-29-23.640292,"82.10,42.72"
2024-05-28_13-29-23.669083,"94.94,46.65"
2024-05-28_13-29-23.701830,"81.40,55.10"
2024-05-28_13-29-23.734579,"54.53,74.94"
2024-05-28_13-29-23.767406,"56.25,67.18"
2024-05-28_13-29-23.800787,"68.61,75.20"
2024-05-28_13-29-23.833036,"67.34,68.42"
2024-05-28_13-29-23.865544,"51.60,80.91"
2024-05-28_13-29-23.894350,"78.50,77.84"
2024-05-28_13-29-23.927110,"66.25,65.99"
2024-05-28_13-29-23.959920,"84.83,59.80"
2024-05-28_13-29-23.992714,"91.24,45.09"
2024-05-28_13-29-24.025470,"51.47,62.70"
2024-05-28_13-29-24.058216,"51.07,71.49"
2024-05-28_13-29-24.090961,"56.84,66.57"
2024-05-28_13-29-24.119636,"54.69,71.63"
2024-05-28_13-29-24.152365,"62.92,68.83"
2024-05-28_13-29-24.185153,"52.60,83.69"
2024-05-28_13-29-24.217975,"76.71,78.30"
2024-05-28_13-29-24.250699,"73.78,67.03"
2024-05-28_13-29-24.283474,"90.38,34.22"
2024-05-28_13-29-24.316181,"82.75,70.60"
2024-05-28_13-29-24.344941,"52.93,63.55"
2024-05-28_13-29-24.377775,"51.24,71.23"
2024-05-28_13-29-24.410497,"62.80,66.46"
2024-05-28_13-29-24.443311,"69.26,70.89"
2024-05-28_13-29-24.476025,"51.46,80.60"
2024-05-28_13-29-24.508771,"75.70,62.30"
2024-05-28_13-29-24.541491,"74.11,76.83"
2024-05-28_13-29-24.574179,"78.81,66.57"
2024-05-28_13-29-24.603007,"77.77,40.36"
2024-05-28_13-29-24.635709,"86.70,59.61"
2024-05-28_13-29-24.668484,"48.46,63.66"
2024-05-28_13-29-24.701251,"52.88,70.81"
2024-05-28_13-29-24.734030,"61.84,66.67"
2024-05-28_13-29-24.766781,"61.40,79.19"
2024-05-28_13-29-24.799484,"67.02,67.28"
2024-05-28_13-29-24.828230,"86.07,70.80"
2024-05-28_13-29-24.861082,"71.93,75.03"
2024-05-28_13-29-24.893821,"87.91,48.41"
2024-05-28_13-29-24.926559,"79.59,40.20"
2024-05-28_13-29-24.959344,"75.11,55.74"
2024-05-28_13-29-24.992066,"56.18,65.16"
2024-05-28_13-29-25.024731,"47.25,70.00"
2024-05-28_13-29-25.053490,"60.52,76.12"
2024-05-28_13-29-25.086251,"65.94,70.96"
2024-05-28_13-29-25.119017,"51.00,74.58"
2024-05-28_13-29-25.151911,"87.76,70.67"
2024-05-28_13-29-25.184576,"75.04,78.45"
2024-05-28_13-29-25.217291,"84.34,61.65"
2024-05-28_13-29-25.250020,"78.19,42.49"
2024-05-28_13-29-25.278824,"63.83,74.99"
2024-05-28_13-29-25.311548,"58.06,65.11"
