timestamp,EMG
2024-05-28_13-44-21.844304,"75.23,81.86"
2024-05-28_13-44-21.869138,"85.50,71.59"
2024-05-28_13-44-21.899999,"72.29,75.53"
2024-05-28_13-44-21.932905,"83.31,66.87"
2024-05-28_13-44-21.965566,"81.48,39.75"
2024-05-28_13-44-21.998211,"72.92,40.53"
2024-05-28_13-44-22.030931,"46.81,63.96"
2024-05-28_13-44-22.059825,"54.42,71.15"
2024-05-28_13-44-22.092524,"60.07,65.35"
2024-05-28_13-44-22.125271,"83.88,80.68"
2024-05-28_13-44-22.157986,"53.94,75.69"
2024-05-28_13-44-22.193587,"54.34,73.88"
2024-05-28_13-44-22.223597,"89.25,74.11"
2024-05-28_13-44-22.256211,"81.05,69.24"
2024-05-28_13-44-22.285012,"90.56,40.84"
2024-05-28_13-44-22.317863,"80.64,63.14"
2024-05-28_13-44-22.350537,"68.12,47.14"
2024-05-28_13-44-22.383343,"43.33,69.80"
2024-05-28_13-44-22.416087,"60.79,74.85"
2024-05-28_13-44-22.448745,"58.32,67.61"
2024-05-28_13-44-22.481543,"63.08,73.24"
2024-05-28_13-44-22.510267,"58.78,69.65"
2024-05-28_13-44-22.543320,"77.75,81.42"
2024-05-28_13-44-22.576051,"78.77,76.55"
2024-05-28_13-44-22.608607,"74.44,45.95"
2024-05-28_13-44-22.641604,"88.57,38.96"
2024-05-28_13-44-22.674316,"69.50,67.89"
2024-05-28_13-44-22.706838,"49.61,61.68"
2024-05-28_13-44-22.735594,"52.52,71.59"
2024-05-28_13-44-22.768357,"58.34,65.30"
2024-05-28_13-44-22.839296,"54.34,72.79"
2024-05-28_13-44-22.840889,"74.35,67.85"
2024-05-28_13-44-22.868771,"49.62,89.19"
2024-05-28_13-44-22.899500,"85.91,69.23"
2024-05-28_13-44-22.932013,"66.56,69.24"
2024-05-28_13-44-22.960839,"86.27,57.73"
2024-05-28_13-44-22.993731,"78.69,57.08"
2024-05-28_13-44-23.026390,"59.86,57.95"
2024-05-28_13-44-23.059110,"51.67,71.73"
2024-05-28_13-44-23.091884,"59.56,67.73"
2024-05-28_13-44-23.124760,"49.13,72.53"
2024-05-28_13-44-23.157336,"70.57,77.42"
2024-05-28_13-44-23.186146,"55.48,72.42"
2024-05-28_13-44-23.218955,"69.18,82.05"
2024-05-28_13-44-23.251648,"85.93,65.23"
2024-05-28_13-44-23.284379,"81.51,62.25"
2024-05-28_13-44-23.317146,"88.49,41.70"
2024-05-28_13-44-23.349887,"50.63,68.34"
2024-05-28_13-44-23.382613,"62.54,58.67"
2024-05-28_13-44-23.411584,"58.60,65.02"
2024-05-28_13-44-23.444089,"57.69,75.56"
2024-05-28_13-44-23.476934,"53.97,72.73"
2024-05-28_13-44-23.509681,"73.93,68.73"
2024-05-28_13-44-23.542581,"54.91,75.17"
2024-05-28_13-44-23.578549,"87.21,86.22"
2024-05-28_13-44-23.607979,"61.18,80.83"
2024-05-28_13-44-23.636615,"79.68,62.04"
2024-05-28_13-44-23.669382,"89.37,46.09"
2024-05-28_13-44-23.702130,"67.64,62.48"
2024-05-28_13-44-23.734916,"59.34,62.10"
2024-05-28_13-44-23.767699,"54.31,65.64"
2024-05-28_13-44-23.800487,"54.31,71.08"
2024-05-28_13-44-23.833296,"63.51,67.31"
2024-05-28_13-44-23.865834,"60.68,71.57"
2024-05-28_13-44-23.894657,"52.67,81.05"
2024-05-28_13-44-23.927429,"80.62,76.74"
2024-05-28_13-44-23.960263,"73.21,75.27"
2024-05-28_13-44-23.992960,"87.80,47.86"
2024-05-28_13-44-24.025717,"83.35,38.99"
2024-05-28_13-44-24.058550,"85.43,59.74"
2024-05-28_13-44-24.091151,"52.50,64.66"
2024-05-28_13-44-24.119938,"47.48,74.21"
2024-05-28_13-44-24.152660,"61.83,65.01"
2024-05-28_13-44-24.185505,"65.44,78.65"
2024-05-28_13-44-24.218219,"54.72,74.67"
2024-05-28_13-44-24.252735,"54.83,72.78"
2024-05-28_13-44-24.283645,"88.18,76.81"
2024-05-28_13-44-24.316337,"80.83,68.71"
2024-05-28_13-44-24.359716,"89.54,41.00"
2024-05-28_13-44-24.378343,"79.76,61.08"
2024-05-28_13-44-24.410728,"70.01,47.49"
2024-05-28_13-44-24.443587,"43.35,69.81"
2024-05-28_13-44-24.476281,"59.95,74.95"
2024-05-28_13-44-24.509124,"60.26,68.02"
2024-05-28_13-44-24.541687,"64.31,72.02"
2024-05-28_13-44-24.570447,"59.91,69.57"
2024-05-28_13-44-24.603568,"78.79,80.20"
2024-05-28_13-44-24.636047,"80.52,77.35"
2024-05-28_13-44-24.668789,"72.87,65.10"
2024-05-28_13-44-24.701542,"88.39,39.07"
2024-05-28_13-44-24.734220,"69.88,69.94"
2024-05-28_13-44-24.766882,"51.13,61.58"
2024-05-28_13-44-24.795766,"52.20,71.41"
2024-05-28_13-44-24.828505,"61.17,66.37"
2024-05-28_13-44-24.861173,"55.76,71.21"
2024-05-28_13-44-24.893996,"71.70,68.04"
2024-05-28_13-44-24.926868,"51.12,84.21"
2024-05-28_13-44-24.959612,"81.03,72.79"
2024-05-28_13-44-24.992268,"68.69,68.65"
2024-05-28_13-44-25.020977,"88.06,58.62"
2024-05-28_13-44-25.054163,"78.69,58.18"
2024-05-28_13-44-25.086497,"46.66,75.18"
2024-05-28_13-44-25.119246,"52.66,73.92"
2024-05-28_13-44-25.152096,"60.22,66.11"
2024-05-28_13-44-25.184782,"48.27,69.49"
2024-05-28_13-44-25.217431,"73.12,77.35"
2024-05-28_13-44-25.246259,"53.17,72.01"
2024-05-28_13-44-25.279035,"69.15,79.17"
2024-05-28_13-44-25.311749,"84.86,68.06"
2024-05-28_13-44-25.344556,"80.94,62.00"
2024-05-28_13-44-25.377272,"87.65,40.99"
2024-05-28_13-44-25.410007,"66.20,61.29"
2024-05-28_13-44-25.442692,"68.14,58.29"
2024-05-28_13-44-25.471490,"57.21,64.46"
2024-05-28_13-44-25.504236,"57.69,75.60"
2024-05-28_13-44-25.537044,"52.61,73.54"
2024-05-28_13-44-25.569954,"65.36,68.90"
2024-05-28_13-44-25.602580,"57.13,80.26"
2024-05-28_13-44-25.635263,"90.11,68.56"
2024-05-28_13-44-25.668058,"64.92,77.45"
2024-05-28_13-44-25.696699,"84.74,42.16"
2024-05-28_13-44-25.729549,"83.98,45.06"
2024-05-28_13-44-25.762260,"80.51,55.48"
2024-05-28_13-44-25.795036,"55.29,75.10"
2024-05-28_13-44-25.827809,"56.56,66.04"
2024-05-28_13-44-25.860529,"54.65,72.57"
2024-05-28_13-44-25.893232,"66.60,68.47"
2024-05-28_13-44-25.922018,"49.67,72.02"
2024-05-28_13-44-25.954878,"68.50,84.89"
2024-05-28_13-44-25.987593,"77.30,74.03"
2024-05-28_13-44-26.020348,"78.25,59.89"
2024-05-28_13-44-26.053094,"103.27,46.31"
2024-05-28_13-44-26.085856,"60.98,49.86"
2024-05-28_13-44-26.118497,"65.46,76.58"
2024-05-28_13-44-26.147548,"56.03,67.82"
2024-05-28_13-44-26.180111,"56.82,72.05"
2024-05-28_13-44-26.212842,"71.12,66.82"
2024-05-28_13-44-26.245601,"52.43,80.83"
2024-05-28_13-44-26.278376,"69.15,83.17"
2024-05-28_13-44-26.311144,"82.42,65.19"
2024-05-28_13-44-26.343868,"78.11,58.05"
2024-05-28_13-44-26.372541,"96.32,47.55"
2024-05-28_13-44-26.405322,"66.78,61.97"
2024-05-28_13-44-26.438034,"67.01,59.99"
2024-05-28_13-44-26.470832,"59.47,65.74"
2024-05-28_13-44-26.503579,"47.18,69.46"
2024-05-28_13-44-26.536687,"61.19,77.47"
2024-05-28_13-44-26.569088,"61.22,70.80"
2024-05-28_13-44-26.597814,"51.95,73.11"
2024-05-28_13-44-26.630592,"96.45,75.45"
2024-05-28_13-44-26.663292,"80.28,77.48"
2024-05-28_13-44-26.696118,"86.35,41.01"
2024-05-28_13-44-26.728854,"68.23,41.84"
2024-05-28_13-44-26.761640,"65.63,69.10"
2024-05-28_13-44-26.794348,"57.01,65.01"
2024-05-28_13-44-26.823050,"57.68,75.14"
2024-05-28_13-44-26.855823,"53.96,73.18"
2024-05-28_13-44-26.888596,"71.37,69.05"
2024-05-28_13-44-26.921368,"56.23,77.40"
2024-05-28_13-44-26.954145,"92.67,67.36"
2024-05-28_13-44-26.986891,"62.15,79.63"
2024-05-28_13-44-27.019587,"84.08,61.50"
2024-05-28_13-44-27.048347,"84.22,45.87"
2024-05-28_13-44-27.081132,"69.31,56.54"
2024-05-28_13-44-27.113883,"54.35,74.32"
2024-05-28_13-44-27.146660,"55.24,67.35"
2024-05-28_13-44-27.179395,"73.48,74.93"
2024-05-28_13-44-27.212146,"78.94,67.67"
2024-05-28_13-44-27.244887,"49.56,85.51"
2024-05-28_13-44-27.277570,"96.81,72.94"
2024-05-28_13-44-27.306353,"61.86,69.12"
2024-05-28_13-44-27.339175,"80.51,60.39"
2024-05-28_13-44-27.371845,"85.07,47.23"
2024-05-28_13-44-27.404681,"58.96,39.61"
2024-05-28_13-44-27.437407,"50.95,73.19"
2024-05-28_13-44-27.470125,"59.23,65.61"
2024-05-28_13-44-27.502878,"54.90,71.12"
2024-05-28_13-44-27.531616,"67.60,67.21"
2024-05-28_13-44-27.564432,"51.08,79.92"
2024-05-28_13-44-27.597260,"69.73,77.63"
2024-05-28_13-44-27.629973,"79.89,73.09"
2024-05-28_13-44-27.662699,"81.17,73.57"
2024-05-28_13-44-27.695373,"99.05,47.24"
2024-05-28_13-44-27.728200,"62.54,59.47"
2024-05-28_13-44-27.756884,"60.01,59.88"
2024-05-28_13-44-27.789633,"58.66,65.16"
2024-05-28_13-44-27.822387,"47.09,70.40"
2024-05-28_13-44-27.855185,"60.99,75.99"
2024-05-28_13-44-27.887963,"59.03,69.76"
2024-05-28_13-44-27.920774,"51.68,75.79"
2024-05-28_13-44-27.953367,"94.37,77.39"
2024-05-28_13-44-27.982134,"78.07,77.73"
2024-05-28_13-44-28.014918,"86.47,40.51"
2024-05-28_13-44-28.047728,"68.71,41.94"
2024-05-28_13-44-28.080555,"64.34,74.45"
2024-05-28_13-44-28.113283,"56.27,64.55"
2024-05-28_13-44-28.146053,"55.90,77.05"
2024-05-28_13-44-28.178635,"69.58,75.73"
2024-05-28_13-44-28.207384,"68.36,69.84"
2024-05-28_13-44-28.240196,"55.41,76.97"
2024-05-28_13-44-28.272958,"94.99,68.12"
2024-05-28_13-44-28.305714,"62.10,79.53"
2024-05-28_13-44-28.338446,"81.60,61.56"
2024-05-28_13-44-28.371303,"83.88,46.08"
2024-05-28_13-44-28.403935,"68.07,54.81"
2024-05-28_13-44-28.432660,"55.52,75.21"
2024-05-28_13-44-28.465511,"57.39,66.26"
2024-05-28_13-44-28.498237,"54.17,72.53"
2024-05-28_13-44-28.530997,"80.01,68.79"
2024-05-28_13-44-28.563808,"49.03,85.11"
2024-05-28_13-44-28.596637,"96.70,73.33"
2024-05-28_13-44-28.629243,"62.96,68.54"
2024-05-28_13-44-28.658011,"82.50,38.75"
2024-05-28_13-44-28.690796,"87.34,50.00"
2024-05-28_13-44-28.723531,"63.00,62.23"
2024-05-28_13-44-28.756287,"51.58,72.87"
2024-05-28_13-44-28.789033,"57.35,64.65"
2024-05-28_13-44-28.821760,"56.09,71.94"
2024-05-28_13-44-28.854425,"65.24,68.17"
2024-05-28_13-44-28.883219,"49.34,79.06"
2024-05-28_13-44-28.915990,"93.45,78.98"
2024-05-28_13-44-28.948737,"66.81,72.85"
2024-05-28_13-44-28.981564,"83.00,57.57"
2024-05-28_13-44-29.014287,"90.25,46.19"
2024-05-28_13-44-29.047043,"57.89,41.49"
2024-05-28_13-44-29.079708,"52.25,73.12"
2024-05-28_13-44-29.108609,"61.18,65.87"
2024-05-28_13-44-29.141226,"49.43,70.29"
2024-05-28_13-44-29.179270,"82.83,69.28"
2024-05-28_13-44-29.206942,"48.43,72.43"
2024-05-28_13-44-29.239691,"68.71,77.69"
2024-05-28_13-44-29.272792,"83.62,72.17"
2024-05-28_13-44-29.305012,"86.60,61.63"
2024-05-28_13-44-29.333813,"67.28,41.69"
2024-05-28_13-44-29.366548,"60.95,51.35"
2024-05-28_13-44-29.399317,"64.34,58.58"
2024-05-28_13-44-29.432058,"59.92,65.37"
2024-05-28_13-44-29.464950,"57.10,76.00"
2024-05-28_13-44-29.497635,"63.89,74.17"
2024-05-28_13-44-29.530906,"56.54,70.69"
2024-05-28_13-44-29.558996,"80.05,76.72"
2024-05-28_13-44-29.591807,"77.44,72.73"
2024-05-28_13-44-29.624614,"84.05,62.26"
2024-05-28_13-44-29.657419,"80.81,40.82"
2024-05-28_13-44-29.690146,"65.62,59.91"
2024-05-28_13-44-29.722842,"42.60,71.39"
2024-05-28_13-44-29.755551,"61.36,75.85"
2024-05-28_13-44-29.788251,"58.29,66.91"
2024-05-28_13-44-29.817067,"61.53,73.31"
2024-05-28_13-44-29.850396,"93.43,66.86"
2024-05-28_13-44-29.882575,"68.04,80.84"
2024-05-28_13-44-29.915346,"79.07,42.06"
2024-05-28_13-44-29.948119,"78.75,43.92"
2024-05-28_13-44-29.980846,"74.21,66.33"
2024-05-28_13-44-30.013539,"54.76,64.62"
2024-05-28_13-44-30.042319,"57.89,76.05"
2024-05-28_13-44-30.075113,"56.22,71.93"
2024-05-28_13-44-30.107846,"73.12,66.99"
2024-05-28_13-44-30.140905,"63.89,75.20"
2024-05-28_13-44-30.173422,"70.14,87.67"
2024-05-28_13-44-30.206108,"71.10,79.56"
2024-05-28_13-44-30.238760,"81.13,62.28"
2024-05-28_13-44-30.267586,"90.36,46.60"
2024-05-28_13-44-30.300371,"68.63,55.33"
2024-05-28_13-44-30.333110,"62.03,62.57"
2024-05-28_13-44-30.365915,"55.72,65.64"
2024-05-28_13-44-30.398850,"52.43,70.97"
2024-05-28_13-44-30.431412,"74.71,67.00"
2024-05-28_13-44-30.464070,"53.98,73.66"
2024-05-28_13-44-30.492832,"68.35,88.66"
2024-05-28_13-44-30.525565,"79.33,67.71"
2024-05-28_13-44-30.558400,"76.58,59.95"
2024-05-28_13-44-30.591122,"99.62,47.10"
2024-05-28_13-44-30.623921,"63.66,58.48"
2024-05-28_13-44-30.656651,"57.69,59.75"
2024-05-28_13-44-30.689400,"53.77,64.28"
2024-05-28_13-44-30.718089,"54.11,70.65"
2024-05-28_13-44-30.750915,"74.65,67.57"
2024-05-28_13-44-30.783672,"54.81,79.92"
2024-05-28_13-44-30.816502,"68.86,81.45"
2024-05-28_13-44-30.849167,"80.85,68.44"
2024-05-28_13-44-30.881951,"81.44,58.59"
2024-05-28_13-44-30.914637,"98.18,46.90"
2024-05-28_13-44-30.943343,"60.27,66.32"
2024-05-28_13-44-30.976134,"59.73,59.24"
2024-05-28_13-44-31.008887,"58.89,65.45"
2024-05-28_13-44-31.041692,"48.34,69.58"
2024-05-28_13-44-31.074434,"71.46,78.48"
2024-05-28_13-44-31.107155,"54.72,71.47"
2024-05-28_13-44-31.140046,"68.88,77.65"
2024-05-28_13-44-31.168623,"85.32,70.39"
2024-05-28_13-44-31.201469,"63.29,79.68"
2024-05-28_13-44-31.234243,"77.98,59.92"
2024-05-28_13-44-31.266960,"59.21,53.15"
2024-05-28_13-44-31.299950,"62.11,74.05"
2024-05-28_13-44-31.332467,"59.31,65.04"
2024-05-28_13-44-31.365124,"56.78,77.37"
2024-05-28_13-44-31.393876,"66.50,73.40"
2024-05-28_13-44-31.426717,"54.43,69.53"
2024-05-28_13-44-31.459431,"80.34,77.16"
2024-05-28_13-44-31.492225,"78.58,72.82"
2024-05-28_13-44-31.524942,"81.23,62.32"
2024-05-28_13-44-31.557711,"81.00,40.89"
2024-05-28_13-44-31.590428,"66.01,57.24"
2024-05-28_13-44-31.619159,"59.53,72.14"
2024-05-28_13-44-31.651957,"59.56,75.57"
2024-05-28_13-44-31.684717,"58.57,67.65"
2024-05-28_13-44-31.717486,"63.99,72.04"
2024-05-28_13-44-31.750260,"58.99,69.78"
2024-05-28_13-44-31.782995,"77.78,85.83"
2024-05-28_13-44-31.815808,"77.81,75.85"
2024-05-28_13-44-31.844467,"79.58,45.16"
2024-05-28_13-44-31.877185,"81.35,38.20"
2024-05-28_13-44-31.909988,"67.54,53.99"
2024-05-28_13-44-31.942743,"67.30,76.81"
2024-05-28_13-44-31.975545,"52.23,71.54"
2024-05-28_13-44-32.008259,"59.64,66.59"
2024-05-28_13-44-32.040947,"64.28,72.18"
2024-05-28_13-44-32.069704,"55.14,70.92"
2024-05-28_13-44-32.102553,"81.96,81.72"
2024-05-28_13-44-32.135254,"73.63,76.22"
2024-05-28_13-44-32.168047,"87.78,48.15"
2024-05-28_13-44-32.200772,"33.32,74.85"
2024-05-28_13-44-32.233520,"65.23,77.43"
2024-05-28_13-44-32.266211,"55.28,65.86"
2024-05-28_13-44-32.294955,"54.64,70.97"
2024-05-28_13-44-32.327741,"62.25,66.26"
2024-05-28_13-44-32.360510,"58.85,72.77"
2024-05-28_13-44-32.393301,"52.28,80.74"
2024-05-28_13-44-32.426074,"83.65,77.77"
2024-05-28_13-44-32.461396,"75.44,75.13"
2024-05-28_13-44-32.491480,"100.19,47.65"
2024-05-28_13-44-32.524184,"66.14,57.44"
2024-05-28_13-44-32.553447,"58.86,60.15"
2024-05-28_13-44-32.586588,"56.56,65.32"
2024-05-28_13-44-32.618757,"53.15,70.45"
2024-05-28_13-44-32.651349,"73.70,66.37"
2024-05-28_13-44-32.684064,"55.72,80.48"
2024-05-28_13-44-32.716798,"69.14,79.34"
2024-05-28_13-44-32.749461,"81.86,66.07"
2024-05-28_13-44-32.778288,"81.43,74.10"
2024-05-28_13-44-32.811038,"98.82,47.33"
2024-05-28_13-44-32.843780,"62.06,61.04"
2024-05-28_13-44-32.876639,"66.26,60.11"
2024-05-28_13-44-32.909359,"61.34,66.41"
2024-05-28_13-44-32.942038,"48.43,69.65"
2024-05-28_13-44-32.974742,"68.67,77.37"
2024-05-28_13-44-33.003530,"56.12,71.73"
2024-05-28_13-44-33.036368,"68.69,77.55"
2024-05-28_13-44-33.069146,"84.38,72.92"
2024-05-28_13-44-33.101911,"87.70,62.28"
2024-05-28_13-44-33.134688,"80.91,40.70"
2024-05-28_13-44-33.167390,"60.01,55.56"
2024-05-28_13-44-33.200051,"67.23,74.53"
2024-05-28_13-44-33.228784,"59.37,66.80"
2024-05-28_13-44-33.261573,"56.42,76.03"
2024-05-28_13-44-33.294313,"63.31,73.00"
2024-05-28_13-44-33.327133,"54.32,70.90"
2024-05-28_13-44-33.359932,"87.84,78.52"
2024-05-28_13-44-33.392763,"79.03,70.99"
2024-05-28_13-44-33.425574,"87.97,41.32"
2024-05-28_13-44-33.454611,"77.89,58.59"
2024-05-28_13-44-33.486861,"60.27,48.29"
2024-05-28_13-44-33.519631,"43.07,69.67"
2024-05-28_13-44-33.552496,"59.28,75.27"
2024-05-28_13-44-33.585178,"70.93,67.57"
2024-05-28_13-44-33.617840,"55.28,74.48"
2024-05-28_13-44-33.651756,"57.09,74.80"
2024-05-28_13-44-33.688593,"87.99,81.32"
2024-05-28_13-44-33.719435,"77.68,60.92"
2024-05-28_13-44-33.747731,"94.12,43.40"
2024-05-28_13-44-33.778580,"73.85,48.57"
2024-05-28_13-44-33.810424,"63.74,65.89"
2024-05-28_13-44-33.843163,"54.54,75.25"
2024-05-28_13-44-33.875969,"54.03,71.47"
2024-05-28_13-44-33.905238,"66.14,67.02"
2024-05-28_13-44-33.937498,"55.01,75.39"
2024-05-28_13-44-33.970169,"92.12,74.64"
2024-05-28_13-44-34.003927,"61.55,80.02"
2024-05-28_13-44-34.035670,"83.19,40.95"
2024-05-28_13-44-34.068358,"83.07,45.61"
2024-05-28_13-44-34.101083,"73.36,72.62"
2024-05-28_13-44-34.130007,"54.39,74.42"
2024-05-28_13-44-34.174052,"58.50,67.16"
2024-05-28_13-44-34.195389,"53.41,71.29"
2024-05-28_13-44-34.228151,"69.09,70.39"
2024-05-28_13-44-34.260990,"81.29,82.04"
2024-05-28_13-44-34.293623,"88.03,78.70"
2024-05-28_13-44-34.326392,"70.02,47.65"
2024-05-28_13-44-34.355204,"85.50,38.70"
2024-05-28_13-44-34.387933,"81.51,45.04"
2024-05-28_13-44-34.420714,"51.47,61.76"
2024-05-28_13-44-34.453513,"52.45,71.80"
2024-05-28_13-44-34.486400,"59.66,65.53"
2024-05-28_13-44-34.518966,"68.63,73.26"
2024-05-28_13-44-34.552285,"58.17,69.84"
2024-05-28_13-44-34.580361,"81.30,86.57"
2024-05-28_13-44-34.613194,"74.30,61.11"
2024-05-28_13-44-34.645949,"86.53,48.31"
2024-05-28_13-44-34.678668,"73.90,34.22"
2024-05-28_13-44-34.711449,"65.88,71.99"
2024-05-28_13-44-34.744223,"51.55,65.41"
2024-05-28_13-44-34.776923,"52.98,70.87"
2024-05-28_13-44-34.805661,"63.74,66.61"
2024-05-28_13-44-34.838423,"59.73,73.49"
2024-05-28_13-44-34.871179,"68.60,89.63"
2024-05-28_13-44-34.904351,"80.00,65.08"
2024-05-28_13-44-34.936806,"76.60,40.36"
2024-05-28_13-44-34.969519,"93.46,47.46"
2024-05-28_13-44-35.002138,"60.90,47.87"
2024-05-28_13-44-35.030912,"66.75,59.98"
2024-05-28_13-44-35.063693,"58.29,65.81"
2024-05-28_13-44-35.096445,"53.75,70.95"
2024-05-28_13-44-35.129223,"74.87,68.24"
2024-05-28_13-44-35.161983,"55.39,80.21"
2024-05-28_13-44-35.194890,"68.71,78.29"
2024-05-28_13-44-35.227562,"82.59,72.16"
2024-05-28_13-44-35.260161,"81.61,72.19"
2024-05-28_13-44-35.288967,"50.10,67.89"
2024-05-28_13-44-35.321750,"60.00,46.24"
2024-05-28_13-44-35.354447,"53.32,72.37"
2024-05-28_13-44-35.387275,"61.73,65.46"
2024-05-28_13-44-35.420077,"66.84,70.93"
2024-05-28_13-44-35.452728,"65.02,78.85"
2024-05-28_13-44-35.485454,"50.81,75.92"
2024-05-28_13-44-35.514211,"91.50,76.53"
2024-05-28_13-44-35.546993,"78.34,67.49"
2024-05-28_13-44-35.579817,"77.06,39.79"
2024-05-28_13-44-35.612579,"73.10,42.91"
2024-05-28_13-44-35.645390,"47.72,64.07"
2024-05-28_13-44-35.677966,"53.23,70.66"
2024-05-28_13-44-35.710732,"62.88,66.47"
2024-05-28_13-44-35.739464,"62.16,78.86"
2024-05-28_13-44-35.772420,"50.22,74.21"
2024-05-28_13-44-35.805066,"85.18,75.05"
2024-05-28_13-44-35.837831,"75.15,74.58"
2024-05-28_13-44-35.870540,"91.11,48.40"
2024-05-28_13-44-35.903238,"66.98,38.72"
2024-05-28_13-44-35.936030,"64.94,72.89"
2024-05-28_13-44-35.964748,"59.48,65.73"
2024-05-28_13-44-35.997534,"48.17,69.37"
2024-05-28_13-44-36.030279,"60.83,76.35"
2024-05-28_13-44-36.063044,"60.94,70.89"
2024-05-28_13-44-36.095811,"52.17,85.11"
2024-05-28_13-44-36.128579,"91.51,76.66"
2024-05-28_13-44-36.161246,"83.45,62.58"
2024-05-28_13-44-36.190024,"90.19,40.71"
2024-05-28_13-44-36.222759,"64.52,60.57"
2024-05-28_13-44-36.255544,"74.41,59.13"
2024-05-28_13-44-36.288381,"57.36,66.66"
2024-05-28_13-44-36.321076,"58.13,77.84"
2024-05-28_13-44-36.353781,"65.06,73.78"
2024-05-28_13-44-36.386519,"54.97,69.94"
2024-05-28_13-44-36.415272,"66.48,76.89"
2024-05-28_13-44-36.448086,"79.58,72.14"
2024-05-28_13-44-36.480937,"86.39,61.42"
2024-05-28_13-44-36.513604,"79.83,61.21"
2024-05-28_13-44-36.546650,"75.00,48.05"
2024-05-28_13-44-36.579091,"43.87,69.68"
2024-05-28_13-44-36.611818,"59.80,75.32"
2024-05-28_13-44-36.640616,"68.35,68.34"
2024-05-28_13-44-36.673406,"53.24,74.40"
2024-05-28_13-44-36.706069,"58.63,73.05"
2024-05-28_13-44-36.738867,"75.96,82.13"
2024-05-28_13-44-36.771718,"79.47,61.10"
2024-05-28_13-44-36.804406,"75.38,42.87"
2024-05-28_13-44-36.837072,"73.91,63.08"
2024-05-28_13-44-36.865800,"55.40,64.66"
2024-05-28_13-44-36.898576,"55.23,74.84"
2024-05-28_13-44-36.931325,"55.18,72.05"
2024-05-28_13-44-36.964143,"71.22,67.75"
2024-05-28_13-44-36.996889,"55.90,79.67"
2024-05-28_13-44-37.029663,"90.13,72.96"
2024-05-28_13-44-37.062301,"67.25,78.52"
2024-05-28_13-44-37.091124,"86.51,41.36"
2024-05-28_13-44-37.123847,"73.80,45.29"
2024-05-28_13-44-37.156592,"55.89,71.56"
2024-05-28_13-44-37.189480,"57.34,74.66"
2024-05-28_13-44-37.222153,"57.47,66.65"
2024-05-28_13-44-37.254887,"68.88,71.66"
2024-05-28_13-44-37.287570,"85.52,78.97"
2024-05-28_13-44-37.316353,"70.37,90.37"
2024-05-28_13-44-37.349114,"80.04,76.88"
2024-05-28_13-44-37.381864,"80.26,45.59"
2024-05-28_13-44-37.414651,"90.20,38.00"
2024-05-28_13-44-37.447431,"65.57,55.99"
2024-05-28_13-44-37.480172,"64.27,77.45"
2024-05-28_13-44-37.512864,"52.15,71.68"
2024-05-28_13-44-37.541701,"58.96,65.90"
2024-05-28_13-44-37.574393,"64.72,73.95"
2024-05-28_13-44-37.607131,"53.53,69.23"
2024-05-28_13-44-37.639987,"81.65,74.06"
2024-05-28_13-44-37.672823,"77.17,60.83"
2024-05-28_13-44-37.705498,"96.70,46.77"
2024-05-28_13-44-37.738142,"67.61,61.38"
2024-05-28_13-44-37.766892,"61.97,62.08"
2024-05-28_13-44-37.799675,"56.04,66.19"
2024-05-28_13-44-37.832484,"55.10,71.05"
2024-05-28_13-44-37.865230,"67.75,67.48"
2024-05-28_13-44-37.897986,"49.21,87.94"
2024-05-28_13-44-37.930727,"95.28,74.41"
2024-05-28_13-44-37.963426,"63.36,67.80"
2024-05-28_13-44-37.996137,"84.97,38.57"
2024-05-28_13-44-38.024919,"66.90,64.20"
2024-05-28_13-44-38.057775,"54.57,68.53"
2024-05-28_13-44-38.090490,"51.92,71.72"
2024-05-28_13-44-38.123253,"59.26,66.07"
2024-05-28_13-44-38.155991,"54.74,71.43"
2024-05-28_13-44-38.188724,"67.50,69.81"
2024-05-28_13-44-38.221398,"52.08,83.07"
2024-05-28_13-44-38.250219,"76.24,78.27"
2024-05-28_13-44-38.283069,"76.01,49.50"
2024-05-28_13-44-38.315767,"88.83,58.39"
2024-05-28_13-44-38.348482,"58.29,69.64"
2024-05-28_13-44-38.381238,"55.31,63.76"
2024-05-28_13-44-38.413965,"54.28,70.83"
2024-05-28_13-44-38.446622,"61.77,65.96"
2024-05-28_13-44-38.475405,"59.88,71.99"
2024-05-28_13-44-38.508563,"53.44,80.09"
2024-05-28_13-44-38.540990,"85.25,74.42"
2024-05-28_13-44-38.573757,"73.54,76.35"
2024-05-28_13-44-38.606511,"87.12,66.61"
2024-05-28_13-44-38.639265,"80.71,38.82"
2024-05-28_13-44-38.671930,"77.75,62.51"
2024-05-28_13-44-38.700758,"52.06,64.27"
2024-05-28_13-44-38.733470,"52.99,70.60"
2024-05-28_13-44-38.766250,"62.41,66.66"
2024-05-28_13-44-38.799013,"65.29,79.21"
2024-05-28_13-44-38.831779,"51.53,74.76"
2024-05-28_13-44-38.864537,"83.06,75.36"
2024-05-28_13-44-38.897209,"78.67,74.23"
2024-05-28_13-44-38.926015,"93.36,48.06"
2024-05-28_13-44-38.958795,"49.72,63.48"
2024-05-28_13-44-38.991514,"68.51,60.66"
2024-05-28_13-44-39.024329,"59.23,65.90"
2024-05-28_13-44-39.057046,"46.89,69.48"
2024-05-28_13-44-39.089739,"75.60,77.60"
2024-05-28_13-44-39.122420,"58.17,71.07"
2024-05-28_13-44-39.151346,"68.99,81.08"
2024-05-28_13-44-39.184093,"85.64,65.01"
2024-05-28_13-44-39.216975,"86.84,62.64"
2024-05-28_13-44-39.249663,"80.09,40.73"
2024-05-28_13-44-39.282336,"62.29,65.77"
2024-05-28_13-44-39.315021,"67.10,74.89"
2024-05-28_13-44-39.347745,"58.51,67.14"
2024-05-28_13-44-39.376517,"56.28,76.53"
2024-05-28_13-44-39.409343,"65.23,73.87"
2024-05-28_13-44-39.442063,"54.85,69.84"
2024-05-28_13-44-39.474839,"91.46,76.77"
2024-05-28_13-44-39.507590,"78.35,71.61"
2024-05-28_13-44-39.540340,"83.92,61.50"
2024-05-28_13-44-39.573005,"80.84,63.73"
2024-05-28_13-44-39.601812,"71.29,47.88"
2024-05-28_13-44-39.634577,"43.85,69.86"
2024-05-28_13-44-39.667347,"59.27,75.20"
2024-05-28_13-44-39.700109,"72.20,68.80"
2024-05-28_13-44-39.732846,"53.70,73.03"
2024-05-28_13-44-39.765605,"59.02,73.02"
2024-05-28_13-44-39.798295,"76.52,81.96"
2024-05-28_13-44-39.827035,"80.50,60.81"
2024-05-28_13-44-39.859794,"76.21,42.90"
2024-05-28_13-44-39.892546,"73.11,63.90"
2024-05-28_13-44-39.925329,"56.31,65.13"
2024-05-28_13-44-39.958122,"54.55,74.59"
2024-05-28_13-44-39.990846,"54.99,71.78"
2024-05-28_13-44-40.023501,"73.97,67.95"
2024-05-28_13-44-40.052298,"55.75,79.08"
2024-05-28_13-44-40.085137,"89.22,73.62"
2024-05-28_13-44-40.117856,"70.78,64.19"
2024-05-28_13-44-40.150613,"87.10,41.44"
2024-05-28_13-44-40.183942,"74.73,45.18"
2024-05-28_13-44-40.216110,"57.36,65.73"
2024-05-28_13-44-40.248802,"55.90,74.96"
2024-05-28_13-44-40.277619,"56.66,66.52"
2024-05-28_13-44-40.310357,"54.71,71.29"
2024-05-28_13-44-40.343117,"69.89,70.87"
2024-05-28_13-44-40.375860,"84.23,75.43"
2024-05-28_13-44-40.408609,"77.97,80.77"
2024-05-28_13-44-40.441381,"68.75,48.14"
2024-05-28_13-44-40.474045,"85.70,38.82"
2024-05-28_13-44-40.502805,"67.50,45.10"
2024-05-28_13-44-40.535602,"50.30,61.49"
2024-05-28_13-44-40.568398,"48.83,71.07"
2024-05-28_13-44-40.601152,"60.58,65.53"
2024-05-28_13-44-40.633872,"70.18,73.54"
2024-05-28_13-44-40.666636,"59.37,69.22"
2024-05-28_13-44-40.699334,"85.41,85.29"
2024-05-28_13-44-40.728095,"73.07,76.75"
2024-05-28_13-44-40.760874,"83.64,65.90"
2024-05-28_13-44-40.793628,"85.42,34.52"
2024-05-28_13-44-40.826402,"65.73,70.14"
2024-05-28_13-44-40.859180,"51.40,64.85"
2024-05-28_13-44-40.891930,"53.71,70.93"
2024-05-28_13-44-40.924633,"62.28,66.48"
2024-05-28_13-44-40.953360,"58.43,73.11"
2024-05-28_13-44-40.986142,"69.18,80.57"
2024-05-28_13-44-41.018894,"80.55,64.48"
2024-05-28_13-44-41.051700,"77.46,75.34"
2024-05-28_13-44-41.084533,"99.08,47.23"
2024-05-28_13-44-41.117183,"64.37,57.66"
2024-05-28_13-44-41.149859,"62.28,60.02"
2024-05-28_13-44-41.178589,"56.05,65.07"
2024-05-28_13-44-41.211430,"53.84,70.66"
2024-05-28_13-44-41.244166,"69.31,68.62"
2024-05-28_13-44-41.276929,"54.04,80.54"
2024-05-28_13-44-41.309724,"68.77,77.40"
2024-05-28_13-44-41.342469,"67.75,71.90"
2024-05-28_13-44-41.375147,"74.65,72.56"
2024-05-28_13-44-41.403867,"63.50,50.95"
2024-05-28_13-44-41.436727,"61.27,44.61"
2024-05-28_13-44-41.469502,"52.36,72.84"
2024-05-28_13-44-41.502212,"62.29,65.21"
2024-05-28_13-44-41.534966,"65.75,71.46"
2024-05-28_13-44-41.567761,"62.41,78.82"
2024-05-28_13-44-41.600490,"50.62,76.33"
2024-05-28_13-44-41.633153,"92.03,75.01"
2024-05-28_13-44-41.661973,"77.08,68.19"
2024-05-28_13-44-41.694715,"87.93,40.21"
2024-05-28_13-44-41.727478,"72.81,40.71"
2024-05-28_13-44-41.760287,"47.40,64.46"
2024-05-28_13-44-41.792988,"52.63,70.53"
2024-05-28_13-44-41.825663,"62.69,66.40"
2024-05-28_13-44-41.858409,"62.08,78.32"
2024-05-28_13-44-41.887182,"49.43,74.15"
2024-05-28_13-44-41.919944,"89.49,73.52"
2024-05-28_13-44-41.952703,"74.58,76.25"
2024-05-28_13-44-41.985504,"87.13,48.90"
2024-05-28_13-44-42.018269,"77.35,39.57"
2024-05-28_13-44-42.051020,"89.60,60.10"
2024-05-28_13-44-42.083669,"55.87,65.59"
2024-05-28_13-44-42.112515,"46.37,69.47"
2024-05-28_13-44-42.145224,"61.57,77.15"
2024-05-28_13-44-42.178073,"65.02,70.62"
2024-05-28_13-44-42.210817,"51.93,74.30"
2024-05-28_13-44-42.243534,"96.27,75.52"
2024-05-28_13-44-42.276258,"81.39,62.51"
2024-05-28_13-44-42.308931,"87.98,40.96"
2024-05-28_13-44-42.337685,"66.63,62.00"
2024-05-28_13-44-42.370490,"73.70,58.88"
2024-05-28_13-44-42.403246,"58.13,67.21"
2024-05-28_13-44-42.435994,"57.50,79.43"
2024-05-28_13-44-42.468783,"68.53,73.30"
2024-05-28_13-44-42.501498,"59.17,68.90"
2024-05-28_13-44-42.534210,"77.20,83.00"
2024-05-28_13-44-42.563016,"84.64,65.32"
2024-05-28_13-44-42.595753,"77.46,76.91"
2024-05-28_13-44-42.628526,"91.00,41.52"
2024-05-28_13-44-42.661347,"67.19,56.77"
2024-05-28_13-44-42.694041,"40.99,71.30"
2024-05-28_13-44-42.726813,"59.34,74.96"
2024-05-28_13-44-42.759531,"59.80,68.10"
2024-05-28_13-44-42.788261,"61.37,72.41"
2024-05-28_13-44-42.821014,"55.96,69.07"
2024-05-28_13-44-42.853772,"95.48,87.02"
2024-05-28_13-44-42.886542,"77.69,60.54"
2024-05-28_13-44-42.919390,"89.47,44.00"
2024-05-28_13-44-42.952106,"75.67,58.29"
2024-05-28_13-44-42.984808,"64.28,48.84"
2024-05-28_13-44-43.013534,"52.61,74.99"
2024-05-28_13-44-43.046345,"53.22,71.75"
2024-05-28_13-44-43.079051,"69.10,67.66"
2024-05-28_13-44-43.111788,"57.56,73.94"
2024-05-28_13-44-43.144556,"68.64,72.73"
2024-05-28_13-44-43.177320,"61.34,82.39"
2024-05-28_13-44-43.210044,"80.20,61.50"
2024-05-28_13-44-43.238792,"80.38,46.44"
2024-05-28_13-44-43.271613,"67.82,33.60"
2024-05-28_13-44-43.304374,"53.17,74.88"
2024-05-28_13-44-43.337081,"56.34,66.30"
2024-05-28_13-44-43.369842,"54.57,71.01"
2024-05-28_13-44-43.402604,"75.15,70.17"
2024-05-28_13-44-43.435308,"88.70,88.02"
2024-05-28_13-44-43.464043,"80.55,75.94"
2024-05-28_13-44-43.496858,"64.18,68.19"
2024-05-28_13-44-43.529594,"83.53,38.83"
2024-05-28_13-44-43.562376,"79.92,45.94"
2024-05-28_13-44-43.595167,"53.73,70.00"
2024-05-28_13-44-43.627935,"50.76,71.28"
2024-05-28_13-44-43.660611,"59.41,65.29"
2024-05-28_13-44-43.689279,"54.37,73.17"
2024-05-28_13-44-43.722091,"63.17,68.83"
2024-05-28_13-44-43.754816,"74.48,73.08"
2024-05-28_13-44-43.787702,"73.61,77.80"
2024-05-28_13-44-43.820357,"81.07,66.54"
2024-05-28_13-44-43.853167,"84.48,34.48"
2024-05-28_13-44-43.886001,"76.07,62.44"
2024-05-28_13-44-43.918591,"50.09,63.15"
2024-05-28_13-44-43.947346,"52.40,70.90"
2024-05-28_13-44-43.980158,"62.66,65.76"
2024-05-28_13-44-44.012892,"69.43,72.80"
2024-05-28_13-44-44.045689,"52.74,80.69"
2024-05-28_13-44-44.078420,"82.42,71.69"
2024-05-28_13-44-44.111116,"73.58,75.37"
2024-05-28_13-44-44.144290,"88.26,47.76"
2024-05-28_13-44-44.172715,"69.62,38.51"
2024-05-28_13-44-44.205373,"80.41,68.29"
2024-05-28_13-44-44.238254,"51.89,64.57"
2024-05-28_13-44-44.270968,"53.09,70.48"
2024-05-28_13-44-44.303719,"62.33,66.82"
2024-05-28_13-44-44.336395,"64.81,78.83"
2024-05-28_13-44-44.369104,"51.79,74.64"
2024-05-28_13-44-44.397877,"94.31,76.09"
2024-05-28_13-44-44.430636,"74.77,71.51"
2024-05-28_13-44-44.463417,"74.93,69.68"
2024-05-28_13-44-44.496227,"77.28,79.18"
2024-05-28_13-44-44.529045,"66.57,59.81"
2024-05-28_13-44-44.561687,"60.33,65.12"
2024-05-28_13-44-44.594369,"47.10,71.24"
2024-05-28_13-44-44.623287,"74.19,77.87"
2024-05-28_13-44-44.656077,"53.45,70.79"
2024-05-28_13-44-44.688783,"69.34,77.13"
2024-05-28_13-44-44.721468,"85.14,72.56"
2024-05-28_13-44-44.754247,"87.06,62.04"
2024-05-28_13-44-44.786986,"80.57,40.48"
2024-05-28_13-44-44.819645,"59.88,44.41"
2024-05-28_13-44-44.848501,"51.75,71.93"
2024-05-28_13-44-44.881239,"60.64,65.42"
2024-05-28_13-44-44.913967,"57.33,77.05"
2024-05-28_13-44-44.946883,"57.67,73.49"
2024-05-28_13-44-44.979532,"51.74,68.68"
2024-05-28_13-44-45.012189,"85.14,68.24"
2024-05-28_13-44-45.044901,"77.99,70.30"
2024-05-28_13-44-45.073702,"87.91,61.19"
2024-05-28_13-44-45.106467,"79.04,59.20"
2024-05-28_13-44-45.139244,"70.64,47.23"
2024-05-28_13-44-45.171971,"42.91,69.73"
2024-05-28_13-44-45.204752,"60.78,75.73"
2024-05-28_13-44-45.237536,"68.02,68.80"
2024-05-28_13-44-45.270161,"52.41,72.99"
2024-05-28_13-44-45.299145,"58.93,74.78"
2024-05-28_13-44-45.331817,"88.05,83.13"
2024-05-28_13-44-45.364548,"79.29,60.88"
2024-05-28_13-44-45.397261,"73.69,43.27"
2024-05-28_13-44-45.430046,"77.51,38.41"
2024-05-28_13-44-45.462771,"52.41,66.93"
2024-05-28_13-44-45.495457,"55.66,78.40"
2024-05-28_13-44-45.524469,"55.82,72.10"
2024-05-28_13-44-45.557035,"67.70,66.89"
2024-05-28_13-44-45.589789,"55.26,73.46"
2024-05-28_13-44-45.622520,"82.02,73.90"
2024-05-28_13-44-45.655290,"60.87,80.66"
2024-05-28_13-44-45.688082,"79.99,61.76"
2024-05-28_13-44-45.720759,"80.78,46.42"
2024-05-28_13-44-45.749477,"65.85,64.00"
2024-05-28_13-44-45.782250,"52.99,75.21"
2024-05-28_13-44-45.815014,"58.90,67.14"
2024-05-28_13-44-45.847788,"54.27,71.11"
2024-05-28_13-44-45.880561,"74.89,68.17"
2024-05-28_13-44-45.913454,"51.76,81.68"
2024-05-28_13-44-45.947302,"75.28,79.53"
2024-05-28_13-44-45.974809,"68.42,65.83"
2024-05-28_13-44-46.007846,"86.33,39.04"
2024-05-28_13-44-46.040348,"69.95,69.79"
2024-05-28_13-44-46.073067,"50.52,62.11"
2024-05-28_13-44-46.105925,"52.85,71.61"
2024-05-28_13-44-46.138612,"60.63,66.49"
2024-05-28_13-44-46.171278,"54.94,71.69"
2024-05-28_13-44-46.200014,"60.20,68.81"
2024-05-28_13-44-46.232887,"86.90,83.23"
2024-05-28_13-44-46.265630,"73.14,77.90"
2024-05-28_13-44-46.298293,"79.20,49.25"
2024-05-28_13-44-46.331125,"74.16,35.64"
2024-05-28_13-44-46.363833,"86.48,62.48"
2024-05-28_13-44-46.396673,"50.70,63.86"
2024-05-28_13-44-46.425335,"55.36,71.72"
2024-05-28_13-44-46.458095,"60.67,68.71"
2024-05-28_13-44-46.490867,"83.43,74.36"
2024-05-28_13-44-46.523784,"53.23,80.39"
2024-05-28_13-44-46.556378,"67.21,75.98"
2024-05-28_13-44-46.589123,"73.27,75.70"
2024-05-28_13-44-46.621853,"94.91,48.73"
2024-05-28_13-44-46.650565,"52.42,67.07"
2024-05-28_13-44-46.683433,"68.15,60.42"
2024-05-28_13-44-46.716129,"55.90,64.69"
2024-05-28_13-44-46.748814,"52.35,71.90"
2024-05-28_13-44-46.781678,"61.85,65.73"
2024-05-28_13-44-46.814394,"58.45,79.68"
2024-05-28_13-44-46.847099,"68.57,79.14"
2024-05-28_13-44-46.875838,"81.30,72.42"
2024-05-28_13-44-46.908664,"83.95,36.73"
2024-05-28_13-44-46.941440,"79.07,46.55"
2024-05-28_13-44-46.974084,"58.98,51.22"
2024-05-28_13-44-47.006914,"52.40,74.98"
2024-05-28_13-44-47.039640,"60.64,65.22"
2024-05-28_13-44-47.072402,"48.45,71.94"
2024-05-28_13-44-47.101069,"71.73,78.14"
2024-05-28_13-44-47.133850,"53.08,70.91"
2024-05-28_13-44-47.166777,"67.45,79.57"
2024-05-28_13-44-47.199411,"71.53,71.44"
2024-05-28_13-44-47.232330,"88.62,61.38"
2024-05-28_13-44-47.264957,"67.01,66.17"
2024-05-28_13-44-47.297664,"61.49,44.38"
2024-05-28_13-44-47.330317,"51.98,71.68"
2024-05-28_13-44-47.359110,"60.18,66.01"
2024-05-28_13-44-47.392134,"71.85,77.06"
2024-05-28_13-44-47.424787,"57.97,73.32"
2024-05-28_13-44-47.457410,"66.98,80.78"
2024-05-28_13-44-47.490326,"85.66,80.56"
2024-05-28_13-44-47.522866,"79.34,69.48"
2024-05-28_13-44-47.555661,"92.77,40.49"
2024-05-28_13-44-47.584425,"75.82,61.56"
2024-05-28_13-44-47.617225,"60.94,48.07"
2024-05-28_13-44-47.649966,"44.29,69.86"
2024-05-28_13-44-47.682692,"61.10,76.09"
2024-05-28_13-44-47.715487,"67.90,68.10"
2024-05-28_13-44-47.748274,"53.36,75.22"
2024-05-28_13-44-47.780863,"59.38,73.86"
2024-05-28_13-44-47.809642,"73.29,81.84"
2024-05-28_13-44-47.842430,"78.88,61.06"
2024-05-28_13-44-47.875402,"76.07,43.88"
2024-05-28_13-44-47.908016,"72.76,64.11"
2024-05-28_13-44-47.940801,"54.25,64.25"
2024-05-28_13-44-47.973454,"55.37,76.09"
2024-05-28_13-44-48.006211,"53.66,71.70"
2024-05-28_13-44-48.035493,"64.04,67.52"
2024-05-28_13-44-48.067734,"56.54,77.06"
2024-05-28_13-44-48.100541,"95.93,74.95"
2024-05-28_13-44-48.133278,"61.35,79.63"
2024-05-28_13-44-48.165974,"82.79,41.56"
2024-05-28_13-44-48.198717,"85.70,46.08"
2024-05-28_13-44-48.231443,"67.74,57.31"
2024-05-28_13-44-48.260235,"55.96,74.94"
2024-05-28_13-44-48.293016,"58.32,67.24"
2024-05-28_13-44-48.325693,"53.68,71.67"
2024-05-28_13-44-48.358619,"68.17,70.44"
2024-05-28_13-44-48.391257,"79.84,73.04"
2024-05-28_13-44-48.424048,"81.76,77.03"
2024-05-28_13-44-48.456683,"78.97,66.21"
2024-05-28_13-44-48.485539,"65.08,60.98"
2024-05-28_13-44-48.518317,"66.21,63.30"
2024-05-28_13-44-48.551079,"59.08,62.77"
2024-05-28_13-44-48.583755,"52.93,71.86"
2024-05-28_13-44-48.616576,"58.71,65.37"
2024-05-28_13-44-48.649338,"69.02,73.37"
2024-05-28_13-44-48.682013,"57.53,70.61"
2024-05-28_13-44-48.710798,"66.27,84.56"
2024-05-28_13-44-48.743510,"74.62,76.25"
2024-05-28_13-44-48.776272,"93.89,47.75"
2024-05-28_13-44-48.809056,"73.01,56.51"
2024-05-28_13-44-48.841817,"68.40,61.51"
2024-05-28_13-44-48.874554,"55.29,66.35"
2024-05-28_13-44-48.907239,"53.95,70.54"
2024-05-28_13-44-48.935995,"76.07,66.74"
2024-05-28_13-44-48.968697,"56.19,71.94"
2024-05-28_13-44-49.001548,"68.81,88.92"
2024-05-28_13-44-49.034274,"79.22,64.97"
2024-05-28_13-44-49.067123,"78.05,75.19"
2024-05-28_13-44-49.099866,"103.25,46.79"
2024-05-28_13-44-49.132533,"61.84,65.63"
2024-05-28_13-44-49.161230,"69.01,75.16"
2024-05-28_13-44-49.194031,"57.54,65.44"
2024-05-28_13-44-49.226764,"55.13,70.57"
2024-05-28_13-44-49.259626,"68.89,67.07"
2024-05-28_13-44-49.292360,"53.01,79.83"
2024-05-28_13-44-49.325088,"89.08,79.97"
2024-05-28_13-44-49.357815,"68.47,69.99"
2024-05-28_13-44-49.390543,"89.73,58.23"
2024-05-28_13-44-49.419303,"79.78,56.03"
2024-05-28_13-44-49.452075,"66.92,52.65"
2024-05-28_13-44-49.484759,"53.52,75.52"
2024-05-28_13-44-49.517594,"61.38,64.82"
2024-05-28_13-44-49.550410,"61.64,70.51"
2024-05-28_13-44-49.583155,"56.94,79.02"
2024-05-28_13-44-49.615762,"51.36,75.16"
2024-05-28_13-44-49.644520,"77.74,78.01"
2024-05-28_13-44-49.677321,"80.40,67.95"
2024-05-28_13-44-49.710086,"88.88,39.52"
2024-05-28_13-44-49.742883,"73.45,60.05"
2024-05-28_13-44-49.775718,"47.77,64.93"
2024-05-28_13-44-49.808311,"50.60,71.01"
2024-05-28_13-44-49.841034,"61.65,65.07"
2024-05-28_13-44-49.869813,"62.36,77.70"
2024-05-28_13-44-49.902613,"48.68,75.80"
2024-05-28_13-44-49.935372,"88.67,76.62"
2024-05-28_13-44-49.968226,"73.51,75.40"
2024-05-28_13-44-50.000892,"86.74,49.53"
2024-05-28_13-44-50.033585,"77.62,38.90"
2024-05-28_13-44-50.066294,"88.53,59.63"
2024-05-28_13-44-50.095159,"54.81,64.63"
2024-05-28_13-44-50.127905,"46.76,70.16"
2024-05-28_13-44-50.160780,"60.92,75.79"
2024-05-28_13-44-50.193355,"64.38,69.47"
2024-05-28_13-44-50.226180,"50.87,76.24"
2024-05-28_13-44-50.258925,"87.27,74.35"
2024-05-28_13-44-50.291647,"77.10,77.69"
2024-05-28_13-44-50.320324,"86.88,40.56"
2024-05-28_13-44-50.353153,"68.67,41.57"
2024-05-28_13-44-50.385882,"63.37,58.29"
2024-05-28_13-44-50.418617,"56.10,64.70"
2024-05-28_13-44-50.451415,"57.64,75.72"
2024-05-28_13-44-50.484240,"52.82,72.44"
2024-05-28_13-44-50.516950,"81.28,74.36"
2024-05-28_13-44-50.545644,"70.08,88.58"
2024-05-28_13-44-50.578389,"90.87,63.73"
2024-05-28_13-44-50.611171,"73.74,62.26"
2024-05-28_13-44-50.643929,"88.98,41.47"
2024-05-28_13-44-50.676701,"69.17,63.15"
2024-05-28_13-44-50.709418,"52.06,55.78"
2024-05-28_13-44-50.742204,"58.42,75.20"
2024-05-28_13-44-50.770891,"58.50,67.05"
2024-05-28_13-44-50.803623,"65.51,73.52"
2024-05-28_13-44-50.836410,"59.86,70.53"
2024-05-28_13-44-50.869170,"77.23,83.03"
2024-05-28_13-44-50.902020,"77.62,60.62"
2024-05-28_13-44-50.934700,"82.57,45.86"
2024-05-28_13-44-50.967395,"80.28,37.82"
2024-05-28_13-44-50.996285,"65.71,59.62"
2024-05-28_13-44-51.028915,"52.03,77.45"
2024-05-28_13-44-51.061740,"52.53,71.19"
2024-05-28_13-44-51.094640,"58.39,65.58"
2024-05-28_13-44-51.127249,"64.59,74.48"
2024-05-28_13-44-51.159962,"55.78,70.21"
2024-05-28_13-44-51.192658,"80.07,84.21"
2024-05-28_13-44-51.221389,"75.97,76.54"
2024-05-28_13-44-51.254220,"92.68,47.82"
2024-05-28_13-44-51.286928,"73.88,59.10"
2024-05-28_13-44-51.319984,"68.24,61.74"
2024-05-28_13-44-51.352747,"53.09,66.18"
2024-05-28_13-44-51.385223,"54.48,70.34"
2024-05-28_13-44-51.417910,"74.29,68.51"
2024-05-28_13-44-51.446825,"56.05,72.87"
2024-05-28_13-44-51.479488,"68.55,83.78"
2024-05-28_13-44-51.512206,"75.63,73.76"
2024-05-28_13-44-51.545102,"73.80,76.64"
2024-05-28_13-44-51.577767,"96.24,47.38"
2024-05-28_13-44-51.612217,"59.46,40.05"
2024-05-28_13-44-51.643200,"53.51,73.60"
2024-05-28_13-44-51.671953,"57.65,64.63"
2024-05-28_13-44-51.704686,"55.45,71.85"
2024-05-28_13-44-51.737441,"66.87,68.18"
2024-05-28_13-44-51.770324,"48.13,78.91"
2024-05-28_13-44-51.803028,"86.36,68.90"
2024-05-28_13-44-51.835760,"69.22,69.15"
2024-05-28_13-44-51.868494,"87.65,35.22"
2024-05-28_13-44-51.897173,"80.01,58.25"
2024-05-28_13-44-51.929930,"68.26,52.57"
2024-05-28_13-44-51.962723,"52.33,71.20"
2024-05-28_13-44-51.995527,"61.86,65.53"
2024-05-28_13-44-52.028323,"61.73,71.95"
2024-05-28_13-44-52.061049,"57.84,79.70"
2024-05-28_13-44-52.093747,"52.35,73.23"
2024-05-28_13-44-52.126459,"76.09,77.55"
2024-05-28_13-44-52.155255,"81.10,67.35"
2024-05-28_13-44-52.188028,"88.92,39.61"
2024-05-28_13-44-52.220747,"72.88,41.25"
2024-05-28_13-44-52.253627,"49.55,64.21"
2024-05-28_13-44-52.286311,"52.13,70.38"
2024-05-28_13-44-52.319012,"62.08,65.56"
2024-05-28_13-44-52.351738,"64.93,78.00"
2024-05-28_13-44-52.380542,"49.31,73.96"
2024-05-28_13-44-52.413262,"92.42,74.00"
2024-05-28_13-44-52.446062,"72.54,77.18"
2024-05-28_13-44-52.478787,"85.86,48.93"
2024-05-28_13-44-52.511629,"76.20,39.84"
2024-05-28_13-44-52.544309,"56.78,76.88"
2024-05-28_13-44-52.577027,"60.06,67.91"
2024-05-28_13-44-52.605772,"46.83,69.60"
2024-05-28_13-44-52.638558,"63.19,76.65"
2024-05-28_13-44-52.671296,"66.61,70.15"
2024-05-28_13-44-52.704127,"52.01,73.82"
2024-05-28_13-44-52.736831,"72.36,77.04"
2024-05-28_13-44-52.771721,"77.77,62.86"
2024-05-28_13-44-52.803515,"86.17,41.21"
2024-05-28_13-44-52.831073,"51.15,68.09"
2024-05-28_13-44-52.863813,"62.78,58.01"
2024-05-28_13-44-52.896640,"56.88,64.55"
2024-05-28_13-44-52.929324,"60.19,75.61"
2024-05-28_13-44-52.962121,"66.70,73.71"
2024-05-28_13-44-52.994861,"58.29,68.75"
2024-05-28_13-44-53.027571,"77.47,79.71"
2024-05-28_13-44-53.056339,"83.31,65.23"
2024-05-28_13-44-53.089144,"79.51,62.16"
2024-05-28_13-44-53.121854,"80.94,41.88"
2024-05-28_13-44-53.154616,"65.92,56.43"
2024-05-28_13-44-53.187341,"42.16,71.70"
2024-05-28_13-44-53.220369,"58.58,74.93"
2024-05-28_13-44-53.252831,"55.78,67.29"
2024-05-28_13-44-53.281638,"61.80,74.31"
2024-05-28_13-44-53.314388,"58.93,71.05"
2024-05-28_13-44-53.364535,"88.99,84.26"
2024-05-28_13-44-53.380113,"77.86,75.93"
2024-05-28_13-44-53.412684,"84.41,45.02"
2024-05-28_13-44-53.445411,"66.36,63.74"
2024-05-28_13-44-53.478260,"67.08,47.18"
2024-05-28_13-44-53.506854,"52.06,75.67"
2024-05-28_13-44-53.539638,"52.59,70.76"
2024-05-28_13-44-53.572415,"71.39,68.44"
2024-05-28_13-44-53.605152,"74.76,78.00"
2024-05-28_13-44-53.638051,"52.35,81.37"
2024-05-28_13-44-53.670874,"81.20,74.42"
2024-05-28_13-44-53.703438,"76.21,60.98"
2024-05-28_13-44-53.732153,"96.47,46.82"
2024-05-28_13-44-53.764932,"69.06,57.55"
2024-05-28_13-44-53.797690,"63.31,62.21"
2024-05-28_13-44-53.830415,"55.58,65.65"
2024-05-28_13-44-53.863174,"53.65,72.08"
2024-05-28_13-44-53.895934,"72.21,67.78"
2024-05-28_13-44-53.938940,"49.71,72.19"
2024-05-28_13-44-53.957423,"88.77,86.31"
2024-05-28_13-44-53.990219,"62.99,69.28"
2024-05-28_13-44-54.022978,"82.34,38.84"
2024-05-28_13-44-54.055750,"89.65,60.68"
2024-05-28_13-44-54.088483,"68.24,50.41"
2024-05-28_13-44-54.121260,"51.84,72.08"
2024-05-28_13-44-54.153931,"57.90,64.77"
2024-05-28_13-44-54.186628,"55.19,72.70"
2024-05-28_13-44-54.215459,"70.21,69.17"
2024-05-28_13-44-54.248368,"69.36,82.54"
2024-05-28_13-44-54.281002,"75.16,78.03"
2024-05-28_13-44-54.313690,"78.06,67.24"
2024-05-28_13-44-54.346564,"82.04,34.83"
2024-05-28_13-44-54.379178,"72.11,45.08"
2024-05-28_13-44-54.411870,"52.02,63.83"
2024-05-28_13-44-54.448114,"52.53,70.66"
2024-05-28_13-44-54.474964,"63.40,66.89"
2024-05-28_13-44-54.506230,"58.04,71.44"
2024-05-28_13-44-54.539012,"51.61,79.60"
2024-05-28_13-44-54.572253,"89.96,68.73"
2024-05-28_13-44-54.604486,"62.96,77.78"
2024-05-28_13-44-54.637788,"88.10,66.85"
2024-05-28_13-44-54.666019,"82.28,38.69"
2024-05-28_13-44-54.698747,"77.46,65.62"
2024-05-28_13-44-54.731535,"51.34,63.81"
2024-05-28_13-44-54.764293,"53.43,71.74"
2024-05-28_13-44-54.797071,"62.58,66.33"
2024-05-28_13-44-54.829721,"62.64,78.43"
2024-05-28_13-44-54.862444,"51.25,75.87"
2024-05-28_13-44-54.891189,"71.33,77.93"
2024-05-28_13-44-54.924015,"76.01,74.07"
2024-05-28_13-44-54.956750,"92.68,47.63"
2024-05-28_13-44-54.989490,"50.93,39.66"
2024-05-28_13-44-55.022310,"64.09,59.79"
2024-05-28_13-44-55.055022,"56.87,64.89"
2024-05-28_13-44-55.087714,"46.98,69.56"
2024-05-28_13-44-55.116456,"63.23,77.01"
2024-05-28_13-44-55.149277,"59.62,69.51"
2024-05-28_13-44-55.182055,"52.37,73.17"
2024-05-28_13-44-55.214802,"90.94,77.35"
2024-05-28_13-44-55.247585,"80.12,77.18"
2024-05-28_13-44-55.280260,"89.10,41.35"
2024-05-28_13-44-55.313027,"65.06,60.18"
2024-05-28_13-44-55.341735,"58.85,58.35"
2024-05-28_13-44-55.374553,"58.59,64.99"
2024-05-28_13-44-55.407246,"59.44,76.39"
2024-05-28_13-44-55.440141,"65.27,72.58"
2024-05-28_13-44-55.472758,"55.63,69.46"
2024-05-28_13-44-55.505547,"77.67,78.14"
2024-05-28_13-44-55.538304,"82.42,65.96"
2024-05-28_13-44-55.567018,"79.21,77.16"
2024-05-28_13-44-55.599813,"63.62,78.05"
2024-05-28_13-44-55.632641,"65.28,67.30"
2024-05-28_13-44-55.665328,"53.82,71.72"
2024-05-28_13-44-55.698120,"62.68,75.70"
2024-05-28_13-44-55.730915,"58.31,66.74"
2024-05-28_13-44-55.763524,"64.01,71.83"
2024-05-28_13-44-55.792293,"59.47,70.48"
2024-05-28_13-44-55.825102,"64.17,84.72"
2024-05-28_13-44-55.857884,"76.42,75.89"
2024-05-28_13-44-55.890599,"84.91,46.19"
2024-05-28_13-44-55.923438,"91.81,37.60"
2024-05-28_13-44-55.956126,"66.38,57.54"
2024-05-28_13-44-55.988809,"50.91,77.44"
2024-05-28_13-44-56.017600,"50.70,71.78"
2024-05-28_13-44-56.050383,"56.79,65.45"
2024-05-28_13-44-56.083148,"65.21,72.39"
2024-05-28_13-44-56.127783,"53.21,71.25"
2024-05-28_13-44-56.148793,"66.02,84.56"
2024-05-28_13-44-56.181430,"75.01,76.54"
2024-05-28_13-44-56.214108,"90.94,48.57"
2024-05-28_13-44-56.242831,"59.47,60.59"
2024-05-28_13-44-56.275691,"69.04,61.19"
2024-05-28_13-44-56.310324,"53.33,65.58"
2024-05-28_13-44-56.341202,"52.24,71.34"
2024-05-28_13-44-56.373916,"75.38,66.48"
2024-05-28_13-44-56.406704,"54.18,71.63"
2024-05-28_13-44-56.439333,"68.23,88.70"
2024-05-28_13-44-56.472185,"80.68,64.72"
2024-05-28_13-44-56.500885,"77.54,75.33"
2024-05-28_13-44-56.533643,"98.20,46.87"
2024-05-28_13-44-56.566413,"65.09,57.10"
2024-05-28_13-44-56.599789,"57.69,61.56"
2024-05-28_13-44-56.631981,"54.91,67.37"
2024-05-28_13-44-56.664647,"55.03,71.82"
2024-05-28_13-44-56.697337,"69.71,66.71"
2024-05-28_13-44-56.726245,"51.51,80.93"
2024-05-28_13-44-56.758912,"69.02,79.62"
2024-05-28_13-44-56.791773,"81.45,72.88"
2024-05-28_13-44-56.824459,"82.60,57.27"
2024-05-28_13-44-56.857204,"89.16,46.75"
2024-05-28_13-44-56.889907,"58.78,58.53"
2024-05-28_13-44-56.922659,"50.42,73.38"
2024-05-28_13-44-56.951441,"60.49,65.84"
2024-05-28_13-44-56.984165,"49.14,69.87"
2024-05-28_13-44-57.016989,"69.06,79.01"
2024-05-28_13-44-57.049810,"52.72,71.75"
2024-05-28_13-44-57.082478,"68.52,76.57"
2024-05-28_13-44-57.115409,"70.30,71.55"
2024-05-28_13-44-57.147907,"89.34,42.60"
2024-05-28_13-44-57.176649,"80.30,41.34"
2024-05-28_13-44-57.209480,"59.08,43.12"
2024-05-28_13-44-57.242164,"51.07,72.30"
2024-05-28_13-44-57.275039,"60.78,65.90"
2024-05-28_13-44-57.307707,"56.10,75.71"
2024-05-28_13-44-57.340437,"61.61,74.14"
2024-05-28_13-44-57.373129,"55.18,69.64"
2024-05-28_13-44-57.401990,"90.52,77.82"
2024-05-28_13-44-57.434705,"78.75,70.76"
2024-05-28_13-44-57.467504,"90.09,61.80"
2024-05-28_13-44-57.500239,"79.70,61.09"
2024-05-28_13-44-57.532945,"72.75,46.81"
2024-05-28_13-44-57.565682,"44.99,70.28"
2024-05-28_13-44-57.598421,"59.54,76.63"
2024-05-28_13-44-57.627163,"91.39,70.87"
2024-05-28_13-44-57.659965,"57.40,74.04"
2024-05-28_13-44-57.692710,"56.85,76.54"
2024-05-28_13-44-57.725480,"91.59,75.28"
2024-05-28_13-44-57.758231,"78.79,60.88"
2024-05-28_13-44-57.790979,"90.68,44.07"
2024-05-28_13-44-57.823686,"78.68,57.33"
2024-05-28_13-44-57.852432,"74.45,47.77"
2024-05-28_13-44-57.885209,"53.49,75.34"
2024-05-28_13-44-57.918001,"52.02,72.01"
2024-05-28_13-44-57.950728,"59.20,66.98"
2024-05-28_13-44-57.983510,"61.35,72.55"
2024-05-28_13-44-58.016392,"52.40,79.87"
2024-05-28_13-44-58.049057,"82.27,76.24"
2024-05-28_13-44-58.077728,"76.47,76.26"
2024-05-28_13-44-58.110513,"95.26,47.01"
2024-05-28_13-44-58.143298,"70.76,53.77"
2024-05-28_13-44-58.176272,"71.92,61.63"
2024-05-28_13-44-58.209063,"53.08,65.40"
2024-05-28_13-44-58.241715,"53.09,70.89"
2024-05-28_13-44-58.274208,"77.42,67.66"
2024-05-28_13-44-58.303027,"56.86,71.46"
2024-05-28_13-44-58.335750,"68.92,90.00"
2024-05-28_13-44-58.368559,"79.73,65.11"
2024-05-28_13-44-58.401261,"76.79,59.90"
2024-05-28_13-44-58.434099,"100.78,47.50"
2024-05-28_13-44-58.466827,"66.39,57.91"
2024-05-28_13-44-58.499515,"72.72,59.98"
2024-05-28_13-44-58.532229,"55.71,64.58"
2024-05-28_13-44-58.561126,"56.36,71.19"
2024-05-28_13-44-58.593780,"73.39,66.24"
2024-05-28_13-44-58.628508,"77.92,81.87"
2024-05-28_13-44-58.659365,"60.16,94.97"
2024-05-28_13-44-58.692075,"87.16,78.69"
2024-05-28_13-44-58.724771,"76.37,74.64"
2024-05-28_13-44-58.753490,"94.18,48.76"
2024-05-28_13-44-58.786264,"67.77,38.21"
2024-05-28_13-44-58.819236,"64.19,60.59"
2024-05-28_13-44-58.851838,"58.92,65.62"
2024-05-28_13-44-58.884563,"46.05,70.36"
2024-05-28_13-44-58.917325,"61.31,76.01"
2024-05-28_13-44-58.950107,"60.71,70.11"
2024-05-28_13-44-58.982751,"51.68,75.81"
2024-05-28_13-44-59.011526,"95.66,75.19"
2024-05-28_13-44-59.044313,"80.61,78.42"
2024-05-28_13-44-59.077157,"86.06,40.74"
2024-05-28_13-44-59.109840,"67.80,42.06"
2024-05-28_13-44-59.142639,"75.28,70.19"
2024-05-28_13-44-59.175318,"55.06,64.65"
2024-05-28_13-44-59.208045,"55.98,75.21"
2024-05-28_13-44-59.236796,"53.23,71.94"
2024-05-28_13-44-59.269573,"75.19,67.64"
2024-05-28_13-44-59.302344,"54.54,77.38"
2024-05-28_13-44-59.335111,"86.90,72.02"
2024-05-28_13-44-59.367880,"60.71,80.82"
2024-05-28_13-44-59.400587,"81.28,41.48"
2024-05-28_13-44-59.433334,"80.13,46.31"
2024-05-28_13-44-59.462126,"63.73,64.25"
2024-05-28_13-44-59.494830,"50.12,74.86"
2024-05-28_13-44-59.527568,"55.34,66.56"
2024-05-28_13-44-59.560410,"53.19,70.81"
2024-05-28_13-44-59.593139,"69.44,69.18"
2024-05-28_13-44-59.625913,"67.07,74.33"
2024-05-28_13-44-59.658560,"92.21,88.50"
2024-05-28_13-44-59.687333,"75.70,73.61"
2024-05-28_13-44-59.720075,"78.01,60.08"
2024-05-28_13-44-59.753080,"103.63,46.58"
2024-05-28_13-44-59.785712,"61.01,49.20"
2024-05-28_13-44-59.818464,"67.03,75.59"
2024-05-28_13-44-59.851166,"57.04,64.65"
2024-05-28_13-44-59.883839,"54.12,71.78"
2024-05-28_13-44-59.912652,"74.71,67.15"
2024-05-28_13-44-59.945353,"55.21,79.42"
2024-05-28_13-44-59.978186,"52.57,85.29"
2024-05-28_13-45-00.011052,"83.79,65.23"
2024-05-28_13-45-00.043727,"78.31,74.03"
2024-05-28_13-45-00.076401,"94.22,47.01"
2024-05-28_13-45-00.109178,"65.01,58.83"
2024-05-28_13-45-00.137897,"74.11,59.78"
2024-05-28_13-45-00.170699,"58.00,65.35"
2024-05-28_13-45-00.203424,"48.24,70.24"
2024-05-28_13-45-00.236233,"75.93,76.85"
2024-05-28_13-45-00.268952,"58.06,69.68"
2024-05-28_13-45-00.301686,"52.86,75.96"
2024-05-28_13-45-00.334355,"96.67,76.35"
2024-05-28_13-45-00.363209,"77.33,77.34"
2024-05-28_13-45-00.396234,"86.89,40.97"
2024-05-28_13-45-00.428679,"51.84,42.22"
2024-05-28_13-45-00.461581,"77.56,67.94"
2024-05-28_13-45-00.494250,"56.65,64.77"
2024-05-28_13-45-00.526997,"58.91,76.07"
2024-05-28_13-45-00.559663,"52.84,71.32"
2024-05-28_13-45-00.588421,"76.73,69.53"
2024-05-28_13-45-00.621246,"54.74,75.03"
2024-05-28_13-45-00.654043,"95.63,89.44"
2024-05-28_13-45-00.686748,"67.91,76.58"
2024-05-28_13-45-00.719457,"82.69,61.48"
2024-05-28_13-45-00.752468,"80.83,46.17"
2024-05-28_13-45-00.784937,"63.95,63.73"
2024-05-28_13-45-00.813711,"53.52,75.83"
2024-05-28_13-45-00.846536,"56.14,66.07"
2024-05-28_13-45-00.879265,"54.35,71.32"
2024-05-28_13-45-00.912090,"72.48,68.65"
2024-05-28_13-45-00.944886,"52.32,71.93"
2024-05-28_13-45-00.977483,"68.51,84.34"
2024-05-28_13-45-01.010214,"77.71,68.16"
2024-05-28_13-45-01.038973,"77.80,60.09"
2024-05-28_13-45-01.071746,"102.26,46.78"
2024-05-28_13-45-01.104525,"63.05,59.50"
2024-05-28_13-45-01.137245,"61.71,59.81"
2024-05-28_13-45-01.170090,"54.93,64.20"
2024-05-28_13-45-01.202808,"54.59,70.82"
2024-05-28_13-45-01.235466,"74.30,67.20"
2024-05-28_13-45-01.264204,"55.20,78.67"
2024-05-28_13-45-01.297062,"52.44,86.58"
2024-05-28_13-45-01.329770,"85.16,64.48"
2024-05-28_13-45-01.362584,"78.96,74.01"
2024-05-28_13-45-01.395374,"95.27,47.68"
2024-05-28_13-45-01.428061,"50.16,67.74"
2024-05-28_13-45-01.460710,"63.18,59.86"
2024-05-28_13-45-01.489494,"57.48,65.11"
2024-05-28_13-45-01.522234,"49.28,69.69"
2024-05-28_13-45-01.555177,"61.14,77.38"
2024-05-28_13-45-01.587813,"67.07,69.33"
2024-05-28_13-45-01.620562,"51.19,73.87"
2024-05-28_13-45-01.653453,"86.06,71.65"
2024-05-28_13-45-01.686018,"60.15,82.19"
2024-05-28_13-45-01.714759,"85.67,61.11"
2024-05-28_13-45-01.750293,"77.72,43.13"
2024-05-28_13-45-01.780465,"71.69,62.95"
2024-05-28_13-45-01.813090,"53.79,64.85"
2024-05-28_13-45-01.845927,"54.69,75.55"
2024-05-28_13-45-01.878612,"51.83,70.98"
2024-05-28_13-45-01.911425,"68.01,66.93"
2024-05-28_13-45-01.943972,"58.08,74.54"
2024-05-28_13-45-01.972933,"69.11,76.67"
2024-05-28_13-45-02.005564,"78.70,76.30"
2024-05-28_13-45-02.038391,"76.93,61.05"
2024-05-28_13-45-02.071174,"92.75,46.84"
2024-05-28_13-45-02.103855,"58.27,59.90"
2024-05-28_13-45-02.136566,"67.79,61.27"
2024-05-28_13-45-02.169264,"53.35,65.58"
2024-05-28_13-45-02.198101,"53.64,70.80"
2024-05-28_13-45-02.230852,"61.27,66.27"
2024-05-28_13-45-02.265878,"63.59,72.42"
2024-05-28_13-45-02.304348,"52.53,80.90"
2024-05-28_13-45-02.335003,"81.49,73.87"
2024-05-28_13-45-02.361988,"73.52,75.32"
2024-05-28_13-45-02.394634,"88.75,48.23"
2024-05-28_13-45-02.424161,"69.19,38.55"
2024-05-28_13-45-02.456194,"75.75,65.21"
2024-05-28_13-45-02.489083,"52.40,64.50"
2024-05-28_13-45-02.521715,"52.96,70.27"
2024-05-28_13-45-02.556221,"61.37,66.79"
2024-05-28_13-45-02.587284,"59.99,78.30"
2024-05-28_13-45-02.619962,"49.36,74.16"
2024-05-28_13-45-02.648589,"84.19,73.35"
2024-05-28_13-45-02.681856,"75.57,78.99"
2024-05-28_13-45-02.726704,"74.91,69.94"
2024-05-28_13-45-02.746902,"94.90,42.61"
2024-05-28_13-45-02.779845,"75.45,61.85"
2024-05-28_13-45-02.812379,"59.38,47.69"
2024-05-28_13-45-02.845092,"45.83,69.64"
2024-05-28_13-45-02.873872,"60.76,75.84"
2024-05-28_13-45-02.906662,"57.76,67.55"
2024-05-28_13-45-02.939439,"59.79,73.92"
2024-05-28_13-45-02.972204,"56.03,71.47"
2024-05-28_13-45-03.004983,"83.33,85.89"
2024-05-28_13-45-03.037652,"75.79,60.92"
2024-05-28_13-45-03.070439,"84.15,45.60"
2024-05-28_13-45-03.099296,"91.49,38.11"
2024-05-28_13-45-03.131964,"82.82,62.38"
2024-05-28_13-45-03.164684,"54.90,62.73"
2024-05-28_13-45-03.197421,"53.14,71.05"
2024-05-28_13-45-03.230204,"59.22,65.04"
2024-05-28_13-45-03.262911,"54.98,72.77"
2024-05-28_13-45-03.295597,"67.14,69.41"
2024-05-28_13-45-03.324493,"52.50,82.45"
2024-05-28_13-45-03.357228,"77.12,79.20"
2024-05-28_13-45-03.390055,"74.42,67.07"
2024-05-28_13-45-03.422770,"90.67,35.15"
2024-05-28_13-45-03.504198,"80.85,64.22"
2024-05-28_13-45-03.505312,"66.07,49.56"
2024-05-28_13-45-03.528751,"52.41,71.03"
2024-05-28_13-45-03.550948,"61.59,65.82"
2024-05-28_13-45-03.582496,"52.10,70.38"
2024-05-28_13-45-03.615243,"65.35,77.54"
2024-05-28_13-45-03.647968,"50.42,71.16"
2024-05-28_13-45-03.680842,"68.76,77.01"
2024-05-28_13-45-03.713493,"71.10,73.36"
2024-05-28_13-45-03.746178,"84.17,79.79"
2024-05-28_13-45-03.774943,"79.03,41.19"
2024-05-28_13-45-03.807725,"50.10,65.07"
2024-05-28_13-45-03.840483,"62.33,58.28"
2024-05-28_13-45-03.873256,"59.28,65.25"
2024-05-28_13-45-03.906018,"55.83,75.40"
2024-05-28_13-45-03.938742,"51.72,71.50"
2024-05-28_13-45-03.971453,"74.64,67.95"
2024-05-28_13-45-04.000238,"54.13,76.32"
2024-05-28_13-45-04.033000,"88.06,84.51"
2024-05-28_13-45-04.065798,"63.06,80.74"
2024-05-28_13-45-04.098512,"80.67,61.43"
2024-05-28_13-45-04.131279,"100.91,46.55"
2024-05-28_13-45-04.164026,"65.69,48.53"
2024-05-28_13-45-04.196684,"67.22,76.79"
2024-05-28_13-45-04.225456,"53.81,65.59"
2024-05-28_13-45-04.258287,"54.56,70.69"
2024-05-28_13-45-04.291054,"73.51,66.84"
2024-05-28_13-45-04.323752,"55.77,73.91"
2024-05-28_13-45-04.360228,"51.65,79.99"
2024-05-28_13-45-04.389342,"91.28,76.06"
2024-05-28_13-45-04.421986,"73.71,75.60"
2024-05-28_13-45-04.454763,"89.55,48.15"
2024-05-28_13-45-04.483513,"70.17,38.34"
2024-05-28_13-45-04.516380,"77.12,63.25"
2024-05-28_13-45-04.549132,"49.90,63.80"
2024-05-28_13-45-04.581882,"53.55,70.02"
2024-05-28_13-45-04.614644,"60.91,66.64"
2024-05-28_13-45-04.647229,"66.36,77.81"
2024-05-28_13-45-04.679939,"51.78,73.86"
2024-05-28_13-45-04.708854,"54.43,75.16"
2024-05-28_13-45-04.741848,"84.43,62.96"
2024-05-28_13-45-04.774419,"82.85,72.18"
2024-05-28_13-45-04.807061,"89.32,61.17"
2024-05-28_13-45-04.839976,"66.65,65.56"
2024-05-28_13-45-04.872540,"66.07,46.18"
2024-05-28_13-45-04.905227,"43.94,70.28"
2024-05-28_13-45-04.934060,"61.01,75.65"
2024-05-28_13-45-04.966883,"58.13,67.02"
2024-05-28_13-45-04.999591,"67.10,73.41"
2024-05-28_13-45-05.032330,"62.77,70.27"
2024-05-28_13-45-05.065128,"68.44,82.58"
2024-05-28_13-45-05.097808,"87.22,78.33"
2024-05-28_13-45-05.130501,"69.43,65.70"
2024-05-28_13-45-05.159321,"84.50,38.51"
2024-05-28_13-45-05.192087,"90.39,54.24"
2024-05-28_13-45-05.224799,"75.66,52.47"
2024-05-28_13-45-05.257587,"51.12,72.62"
2024-05-28_13-45-05.290319,"57.91,64.52"
2024-05-28_13-45-05.323069,"56.24,72.07"
2024-05-28_13-45-05.355748,"68.80,68.23"
2024-05-28_13-45-05.384734,"51.50,79.44"
2024-05-28_13-45-05.417423,"69.11,81.84"
2024-05-28_13-45-05.450084,"82.62,66.09"
2024-05-28_13-45-05.482997,"76.41,73.87"
2024-05-28_13-45-05.515717,"92.53,47.49"
2024-05-28_13-45-05.548329,"50.77,39.19"
2024-05-28_13-45-05.581002,"72.43,52.90"
2024-05-28_13-45-05.609807,"55.67,65.11"
2024-05-28_13-45-05.642590,"46.99,70.04"
2024-05-28_13-45-05.675373,"61.54,75.64"
2024-05-28_13-45-05.708065,"64.30,70.60"
2024-05-28_13-45-05.740851,"81.04,76.82"
2024-05-28_13-45-05.773789,"75.39,77.19"
2024-05-28_13-45-05.806324,"76.95,79.09"
2024-05-28_13-45-05.835221,"79.19,61.40"
2024-05-28_13-45-05.867904,"90.78,44.16"
2024-05-28_13-45-05.900620,"66.71,64.54"
2024-05-28_13-45-05.933484,"65.06,47.05"
2024-05-28_13-45-05.966120,"51.69,75.97"
2024-05-28_13-45-05.998853,"52.18,70.61"
2024-05-28_13-45-06.031548,"60.99,66.50"
2024-05-28_13-45-06.060343,"69.59,71.63"
2024-05-28_13-45-06.093074,"60.68,68.65"
2024-05-28_13-45-06.125901,"53.32,82.98"
2024-05-28_13-45-06.158673,"90.37,78.93"
2024-05-28_13-45-06.191553,"70.53,67.84"
2024-05-28_13-45-06.224191,"89.86,35.33"
2024-05-28_13-45-06.256837,"67.24,56.32"
2024-05-28_13-45-06.285623,"64.38,51.48"
2024-05-28_13-45-06.318465,"52.45,71.77"
2024-05-28_13-45-06.351273,"63.01,66.17"
2024-05-28_13-45-06.383962,"48.99,70.27"
2024-05-28_13-45-06.416675,"70.64,77.19"
2024-05-28_13-45-06.452361,"55.24,70.49"
2024-05-28_13-45-06.482216,"68.83,79.79"
2024-05-28_13-45-06.510934,"84.61,67.05"
2024-05-28_13-45-06.543714,"82.28,63.22"
2024-05-28_13-45-06.576555,"87.29,41.12"
2024-05-28_13-45-06.609177,"68.38,41.59"
2024-05-28_13-45-06.642028,"77.57,69.48"
2024-05-28_13-45-06.674662,"55.36,64.48"
2024-05-28_13-45-06.707371,"55.97,75.07"
2024-05-28_13-45-06.736199,"53.44,71.17"
2024-05-28_13-45-06.769313,"63.67,69.19"
2024-05-28_13-45-06.801713,"69.42,77.83"
2024-05-28_13-45-06.834581,"69.13,75.04"
2024-05-28_13-45-06.867251,"77.50,77.39"
2024-05-28_13-45-06.900043,"77.08,61.21"
2024-05-28_13-45-06.932700,"96.10,46.96"
2024-05-28_13-45-06.986851,"73.05,56.55"
2024-05-28_13-45-06.994528,"66.65,62.00"
2024-05-28_13-45-07.027141,"54.57,65.34"
2024-05-28_13-45-07.059766,"51.96,71.13"
2024-05-28_13-45-07.092522,"63.35,66.51"
2024-05-28_13-45-07.125301,"69.11,70.84"
2024-05-28_13-45-07.157961,"52.07,80.84"
2024-05-28_13-45-07.186748,"78.81,75.09"
2024-05-28_13-45-07.219522,"75.03,77.06"
2024-05-28_13-45-07.252285,"76.52,66.81"
2024-05-28_13-45-07.285002,"87.05,40.23"
2024-05-28_13-45-07.318297,"79.10,59.18"
2024-05-28_13-45-07.350569,"61.53,44.40"
2024-05-28_13-45-07.383194,"51.85,71.53"
2024-05-28_13-45-07.411971,"60.70,65.96"
2024-05-28_13-45-07.444817,"57.02,75.48"
2024-05-28_13-45-07.477486,"66.70,74.04"
2024-05-28_13-45-07.510437,"58.13,70.00"
2024-05-28_13-45-07.543134,"59.31,92.65"
2024-05-28_13-45-07.575851,"94.77,65.53"
2024-05-28_13-45-07.608429,"69.85,77.68"
2024-05-28_13-45-07.637265,"86.46,41.60"
2024-05-28_13-45-07.669982,"74.53,45.41"
2024-05-28_13-45-07.702781,"68.01,62.24"
2024-05-28_13-45-07.735609,"54.25,75.26"
2024-05-28_13-45-07.774998,"56.99,68.87"
2024-05-28_13-45-07.803748,"54.97,72.17"
2024-05-28_13-45-07.834542,"69.71,67.40"
2024-05-28_13-45-07.866573,"53.03,73.07"
2024-05-28_13-45-07.895391,"68.96,87.77"
2024-05-28_13-45-07.928210,"78.20,65.96"
2024-05-28_13-45-07.960779,"75.54,75.40"
2024-05-28_13-45-07.993568,"97.57,47.79"
2024-05-28_13-45-08.026372,"69.36,38.04"
2024-05-28_13-45-08.059188,"65.85,71.68"
2024-05-28_13-45-08.091738,"54.44,64.64"
2024-05-28_13-45-08.120743,"53.50,70.42"
2024-05-28_13-45-08.153459,"62.71,65.31"
2024-05-28_13-45-08.186076,"63.91,78.30"
2024-05-28_13-45-08.218862,"53.13,73.52"
2024-05-28_13-45-08.251831,"53.92,75.02"
2024-05-28_13-45-08.284333,"89.62,75.72"
2024-05-28_13-45-08.316980,"78.82,68.64"
2024-05-28_13-45-08.345822,"88.38,40.58"
2024-05-28_13-45-08.378636,"66.94,64.70"
2024-05-28_13-45-08.414734,"66.46,46.72"
2024-05-28_13-45-08.444868,"43.32,70.53"
2024-05-28_13-45-08.476897,"59.29,74.80"
2024-05-28_13-45-08.509576,"60.02,67.67"
2024-05-28_13-45-08.542322,"69.30,71.88"
2024-05-28_13-45-08.571156,"63.42,69.13"
2024-05-28_13-45-08.603934,"69.79,81.72"
2024-05-28_13-45-08.636655,"90.00,80.31"
2024-05-28_13-45-08.669564,"64.23,66.90"
2024-05-28_13-45-08.702115,"85.44,60.66"
2024-05-28_13-45-08.734810,"73.47,66.74"
2024-05-28_13-45-08.767538,"68.82,65.25"
2024-05-28_13-45-08.796310,"52.15,71.04"
2024-05-28_13-45-08.829136,"57.10,65.36"
2024-05-28_13-45-08.861911,"53.33,70.44"
2024-05-28_13-45-08.894626,"72.52,66.50"
2024-05-28_13-45-08.927342,"53.93,80.52"
2024-05-28_13-45-08.960101,"52.48,74.06"
2024-05-28_13-45-08.992791,"93.41,77.88"
2024-05-28_13-45-09.021582,"73.76,58.66"
2024-05-28_13-45-09.062158,"87.13,48.48"
2024-05-28_13-45-09.087452,"77.03,39.86"
2024-05-28_13-45-09.120004,"85.45,60.38"
2024-05-28_13-45-09.152740,"52.09,65.18"
2024-05-28_13-45-09.185438,"47.02,69.11"
2024-05-28_13-45-09.218136,"59.59,76.88"
2024-05-28_13-45-09.246965,"57.93,67.97"
2024-05-28_13-45-09.279738,"60.39,72.81"
2024-05-28_13-45-09.312542,"56.86,69.65"
2024-05-28_13-45-09.345198,"63.78,85.11"
2024-05-28_13-45-09.377956,"76.67,76.13"
2024-05-28_13-45-09.410735,"77.58,45.52"
2024-05-28_13-45-09.443319,"90.72,37.94"
2024-05-28_13-45-09.472189,"82.51,63.83"
2024-05-28_13-45-09.505050,"52.33,62.04"
2024-05-28_13-45-09.537679,"52.45,71.64"
2024-05-28_13-45-09.570618,"59.49,66.03"
2024-05-28_13-45-09.603220,"55.39,71.12"
2024-05-28_13-45-09.635932,"72.01,69.51"
2024-05-28_13-45-09.668626,"49.14,79.62"
2024-05-28_13-45-09.697521,"68.57,77.74"
2024-05-28_13-45-09.730230,"81.98,72.56"
2024-05-28_13-45-09.762981,"71.16,72.94"
2024-05-28_13-45-09.795718,"77.35,68.88"
2024-05-28_13-45-09.828566,"64.21,59.14"
2024-05-28_13-45-09.861614,"72.26,60.20"
2024-05-28_13-45-09.893993,"58.58,64.83"
2024-05-28_13-45-09.924385,"47.79,70.12"
2024-05-28_13-45-09.996440,"63.79,76.87"
2024-05-28_13-45-09.999668,"67.66,69.28"
2024-05-28_13-45-10.040935,"50.63,74.73"
2024-05-28_13-45-10.053974,"94.80,85.45"
2024-05-28_13-45-10.089030,"73.27,80.84"
2024-05-28_13-45-10.119829,"78.84,61.23"
2024-05-28_13-45-10.147954,"72.69,44.08"
2024-05-28_13-45-10.180759,"75.91,58.13"
2024-05-28_13-45-10.213628,"59.93,47.38"
2024-05-28_13-45-10.246350,"55.19,76.36"
2024-05-28_13-45-10.279115,"52.55,70.94"
2024-05-28_13-45-10.311756,"59.14,65.59"
2024-05-28_13-45-10.344449,"68.55,73.07"
2024-05-28_13-45-10.373432,"61.57,69.77"
2024-05-28_13-45-10.406273,"82.15,81.86"
2024-05-28_13-45-10.438798,"75.25,78.54"
2024-05-28_13-45-10.471662,"75.61,67.13"
2024-05-28_13-45-10.504429,"91.18,35.05"
2024-05-28_13-45-10.540868,"81.01,57.55"
2024-05-28_13-45-10.569789,"64.66,51.50"
2024-05-28_13-45-10.602613,"51.42,71.37"
2024-05-28_13-45-10.631268,"61.86,65.75"
2024-05-28_13-45-10.673823,"51.64,70.20"
2024-05-28_13-45-10.696784,"71.23,76.81"
2024-05-28_13-45-10.729560,"55.22,70.42"
2024-05-28_13-45-10.762313,"79.12,91.50"
2024-05-28_13-45-10.796493,"86.98,70.26"
2024-05-28_13-45-10.838231,"77.47,78.04"
2024-05-28_13-45-10.856607,"86.86,42.15"
2024-05-28_13-45-10.889284,"80.13,42.01"
2024-05-28_13-45-10.922028,"85.11,59.01"
2024-05-28_13-45-10.954859,"55.68,64.91"
2024-05-28_13-45-10.987643,"55.67,75.64"
2024-05-28_13-45-11.020426,"51.48,70.88"
2024-05-28_13-45-11.053032,"72.36,66.57"
2024-05-28_13-45-11.081806,"61.76,74.68"
2024-05-28_13-45-11.114545,"52.12,69.93"
2024-05-28_13-45-11.147388,"81.67,82.28"
2024-05-28_13-45-11.180115,"73.26,62.54"
2024-05-28_13-45-11.212933,"79.52,66.13"
2024-05-28_13-45-11.245573,"81.65,34.84"
2024-05-28_13-45-11.278321,"67.86,44.62"
2024-05-28_13-45-11.307017,"66.83,63.75"
2024-05-28_13-45-11.339892,"52.30,71.01"
2024-05-28_13-45-11.372608,"60.59,65.19"
2024-05-28_13-45-11.405494,"50.23,71.55"
2024-05-28_13-45-11.438186,"70.31,77.67"
2024-05-28_13-45-11.470974,"52.84,70.79"
2024-05-28_13-45-11.503535,"69.09,83.81"
2024-05-28_13-45-11.532396,"89.69,64.71"
2024-05-28_13-45-11.565115,"77.37,77.11"
2024-05-28_13-45-11.598008,"85.87,40.89"
2024-05-28_13-45-11.630612,"67.73,42.78"
2024-05-28_13-45-11.663410,"85.75,57.94"
2024-05-28_13-45-11.696131,"54.60,64.51"
2024-05-28_13-45-11.728942,"58.07,75.78"
2024-05-28_13-45-11.757585,"53.13,71.50"
2024-05-28_13-45-11.790362,"90.39,70.06"
2024-05-28_13-45-11.823133,"63.35,74.24"
2024-05-28_13-45-11.856071,"51.64,82.04"
2024-05-28_13-45-11.888630,"91.32,85.46"
2024-05-28_13-45-11.921299,"75.26,76.56"
2024-05-28_13-45-11.954079,"84.90,48.02"
2024-05-28_13-45-11.982823,"85.56,33.76"
2024-05-28_13-45-12.036758,"81.03,62.86"
2024-05-28_13-45-12.062041,"49.85,63.23"
2024-05-28_13-45-12.082079,"52.76,70.44"
2024-05-28_13-45-12.114302,"62.40,66.46"
2024-05-28_13-45-12.146850,"65.63,70.06"
2024-05-28_13-45-12.179385,"64.87,78.95"
2024-05-28_13-45-12.208292,"49.67,71.11"
2024-05-28_13-45-12.241063,"92.96,77.48"
2024-05-28_13-45-12.273636,"70.16,72.36"
2024-05-28_13-45-12.306362,"84.83,77.37"
2024-05-28_13-45-12.339155,"88.48,41.42"
2024-05-28_13-45-12.372051,"50.97,66.43"
2024-05-28_13-45-12.404749,"64.66,60.61"
2024-05-28_13-45-12.434033,"56.84,65.05"
2024-05-28_13-45-12.466127,"56.23,75.08"
2024-05-28_13-45-12.498916,"53.67,72.63"
2024-05-28_13-45-12.535007,"68.13,68.19"
2024-05-28_13-45-12.564583,"58.30,72.88"
2024-05-28_13-45-12.597142,"68.86,75.67"
2024-05-28_13-45-12.629865,"79.40,76.24"
2024-05-28_13-45-12.658630,"75.64,76.32"
2024-05-28_13-45-12.691444,"88.12,47.70"
2024-05-28_13-45-12.724182,"75.25,35.14"
2024-05-28_13-45-12.756931,"72.80,65.79"
2024-05-28_13-45-12.789725,"51.50,63.95"
2024-05-28_13-45-12.822560,"54.67,76.76"
2024-05-28_13-45-12.855207,"62.41,65.04"
2024-05-28_13-45-12.884180,"62.85,70.41"
2024-05-28_13-45-12.916699,"63.57,78.86"
2024-05-28_13-45-12.949845,"48.75,71.15"
2024-05-28_13-45-12.982242,"68.54,77.07"
2024-05-28_13-45-13.015048,"85.30,73.67"
2024-05-28_13-45-13.047744,"82.50,61.70"
2024-05-28_13-45-13.080425,"89.17,41.48"
2024-05-28_13-45-13.109175,"67.95,64.76"
2024-05-28_13-45-13.141911,"62.62,58.24"
2024-05-28_13-45-13.174710,"57.22,64.42"
2024-05-28_13-45-13.207465,"57.41,75.32"
2024-05-28_13-45-13.240370,"53.30,72.84"
2024-05-28_13-45-13.273018,"63.33,67.10"
2024-05-28_13-45-13.305740,"57.67,73.05"
2024-05-28_13-45-13.334428,"52.16,74.18"
2024-05-28_13-45-13.367170,"76.91,77.38"
2024-05-28_13-45-13.399911,"75.61,76.98"
2024-05-28_13-45-13.432756,"90.58,47.03"
2024-05-28_13-45-13.465481,"75.21,34.02"
2024-05-28_13-45-13.498274,"72.70,54.47"
2024-05-28_13-45-13.531012,"51.40,63.79"
2024-05-28_13-45-13.559739,"51.89,70.67"
2024-05-28_13-45-13.592700,"63.61,66.34"
2024-05-28_13-45-13.625239,"63.14,70.17"
2024-05-28_13-45-13.658016,"59.59,79.53"
2024-05-28_13-45-13.690750,"50.21,82.52"
2024-05-28_13-45-13.723538,"99.20,79.71"
2024-05-28_13-45-13.756212,"71.13,71.06"
2024-05-28_13-45-13.785062,"71.94,78.48"
2024-05-28_13-45-13.817733,"65.89,61.27"
2024-05-28_13-45-13.850539,"64.26,63.90"
2024-05-28_13-45-13.883239,"66.80,58.84"
2024-05-28_13-45-13.916160,"58.45,64.63"
2024-05-28_13-45-13.948765,"56.10,76.38"
2024-05-28_13-45-13.981650,"54.52,72.04"
2024-05-28_13-45-14.014194,"77.62,67.30"
2024-05-28_13-45-14.043073,"54.43,74.59"
2024-05-28_13-45-14.075834,"82.34,73.66"
2024-05-28_13-45-14.108638,"75.88,82.39"
2024-05-28_13-45-14.141315,"78.05,61.60"
2024-05-28_13-45-14.174142,"97.71,47.14"
2024-05-28_13-45-14.206744,"73.69,57.96"
2024-05-28_13-45-14.235514,"63.72,62.71"
2024-05-28_13-45-14.268443,"52.68,65.62"
2024-05-28_13-45-14.301084,"52.53,70.37"
2024-05-28_13-45-14.333834,"62.85,65.82"
2024-05-28_13-45-14.366556,"61.39,72.26"
2024-05-28_13-45-14.399336,"55.23,79.66"
2024-05-28_13-45-14.432044,"52.13,73.55"
2024-05-28_13-45-14.464752,"91.84,75.93"
2024-05-28_13-45-14.493634,"72.31,69.10"
2024-05-28_13-45-14.526438,"91.43,61.02"
2024-05-28_13-45-14.559203,"67.53,41.00"
2024-05-28_13-45-14.591830,"59.67,58.85"
2024-05-28_13-45-14.624659,"65.29,73.61"
2024-05-28_13-45-14.657291,"58.32,65.00"
2024-05-28_13-45-14.690062,"59.73,75.96"
2024-05-28_13-45-14.718806,"52.68,71.98"
2024-05-28_13-45-14.751645,"69.86,68.13"
2024-05-28_13-45-14.784340,"77.21,82.22"
2024-05-28_13-45-14.817134,"91.61,71.17"
2024-05-28_13-45-14.849922,"61.64,81.60"
2024-05-28_13-45-14.882982,"81.92,61.74"
2024-05-28_13-45-14.915323,"90.64,45.86"
2024-05-28_13-45-14.944105,"69.40,57.46"
2024-05-28_13-45-14.976872,"72.39,62.69"
2024-05-28_13-45-15.009616,"53.56,65.45"
2024-05-28_13-45-15.042350,"52.14,70.27"
2024-05-28_13-45-15.075229,"65.62,67.08"
2024-05-28_13-45-15.107867,"67.37,71.61"
2024-05-28_13-45-15.140658,"51.60,79.72"
2024-05-28_13-45-15.169352,"89.49,85.92"
2024-05-28_13-45-15.202215,"75.61,77.25"
2024-05-28_13-45-15.234928,"76.69,67.87"
2024-05-28_13-45-15.267671,"86.07,41.47"
2024-05-28_13-45-15.300400,"80.45,60.61"
2024-05-28_13-45-15.333102,"60.79,44.14"
2024-05-28_13-45-15.365835,"53.14,71.71"
2024-05-28_13-45-15.397077,"60.37,65.60"
2024-05-28_13-45-15.427397,"56.37,75.72"
2024-05-28_13-45-15.466343,"67.16,72.91"
2024-05-28_13-45-15.494712,"56.27,68.81"
2024-05-28_13-45-15.544748,"59.00,95.44"
2024-05-28_13-45-15.561982,"94.83,65.56"
2024-05-28_13-45-15.594229,"68.31,77.77"
2024-05-28_13-45-15.622495,"86.13,41.48"
2024-05-28_13-45-15.655004,"84.52,45.64"
2024-05-28_13-45-15.685468,"79.24,54.97"
2024-05-28_13-45-15.718304,"53.22,74.82"
2024-05-28_13-45-15.751343,"56.69,66.66"
2024-05-28_13-45-15.783644,"52.77,71.39"
2024-05-28_13-45-15.816590,"92.76,71.13"
2024-05-28_13-45-15.845217,"56.03,72.79"
2024-05-28_13-45-15.877921,"51.77,91.75"
2024-05-28_13-45-15.910683,"91.16,77.27"
2024-05-28_13-45-15.943541,"73.08,75.11"
2024-05-28_13-45-15.976210,"90.78,48.08"
2024-05-28_13-45-16.008906,"82.15,37.71"
2024-05-28_13-45-16.041645,"85.75,59.80"
2024-05-28_13-45-16.070638,"48.53,63.77"
2024-05-28_13-45-16.103284,"52.48,70.54"
2024-05-28_13-45-16.136179,"62.69,65.93"
2024-05-28_13-45-16.168787,"69.07,76.83"
2024-05-28_13-45-16.201499,"55.87,74.40"
2024-05-28_13-45-16.234255,"52.83,69.46"
2024-05-28_13-45-16.266939,"84.76,66.83"
2024-05-28_13-45-16.295684,"76.20,70.31"
2024-05-28_13-45-16.328503,"83.77,42.70"
2024-05-28_13-45-16.364407,"91.68,41.51"
2024-05-28_13-45-16.394055,"69.29,64.36"
2024-05-28_13-45-16.426840,"49.66,56.06"
2024-05-28_13-45-16.459796,"58.86,75.14"
2024-05-28_13-45-16.492143,"57.98,66.17"
2024-05-28_13-45-16.521002,"54.50,72.59"
2024-05-28_13-45-16.553715,"80.28,68.80"
2024-05-28_13-45-16.586517,"49.05,72.21"
2024-05-28_13-45-16.619284,"68.94,84.85"
2024-05-28_13-45-16.652106,"76.75,70.33"
2024-05-28_13-45-16.684807,"75.66,75.13"
2024-05-28_13-45-16.717517,"95.47,47.25"
2024-05-28_13-45-16.750146,"53.67,38.42"
2024-05-28_13-45-16.778937,"76.59,75.27"
2024-05-28_13-45-16.811699,"57.46,64.43"
2024-05-28_13-45-16.855989,"46.77,74.46"
2024-05-28_13-45-16.877841,"62.09,65.24"
2024-05-28_13-45-16.914066,"67.56,77.56"
2024-05-28_13-45-16.942931,"56.57,74.24"
2024-05-28_13-45-16.975645,"52.84,81.20"
2024-05-28_13-45-17.004346,"87.12,79.37"
2024-05-28_13-45-17.037016,"77.66,72.25"
2024-05-28_13-45-17.069806,"80.19,61.81"
2024-05-28_13-45-17.102574,"90.86,41.63"
2024-05-28_13-45-17.135364,"72.00,63.04"
2024-05-28_13-45-17.168075,"58.29,55.46"
2024-05-28_13-45-17.200741,"57.86,74.45"
2024-05-28_13-45-17.229483,"59.12,67.57"
2024-05-28_13-45-17.262238,"52.91,71.14"
2024-05-28_13-45-17.295002,"79.46,67.90"
2024-05-28_13-45-17.327932,"48.14,72.30"
2024-05-28_13-45-17.360643,"69.51,83.95"
2024-05-28_13-45-17.393317,"74.70,73.45"
2024-05-28_13-45-17.426174,"77.33,75.39"
2024-05-28_13-45-17.454779,"97.80,47.68"
2024-05-28_13-45-17.487555,"53.04,63.52"
2024-05-28_13-45-17.520328,"63.31,60.81"
2024-05-28_13-45-17.553383,"54.31,64.58"
2024-05-28_13-45-17.585875,"52.62,70.36"
2024-05-28_13-45-17.618678,"61.05,65.24"
2024-05-28_13-45-17.651256,"62.10,77.17"
2024-05-28_13-45-17.680092,"49.35,75.25"
2024-05-28_13-45-17.712859,"54.38,73.42"
2024-05-28_13-45-17.745634,"88.47,77.08"
2024-05-28_13-45-17.778380,"78.04,68.52"
2024-05-28_13-45-17.811091,"71.67,78.58"
2024-05-28_13-45-17.843877,"67.95,60.87"
2024-05-28_13-45-17.876539,"64.88,52.36"
2024-05-28_13-45-17.905522,"54.23,72.08"
2024-05-28_13-45-17.938204,"59.36,74.65"
2024-05-28_13-45-17.970892,"58.20,68.16"
2024-05-28_13-45-18.003598,"53.41,71.91"
2024-05-28_13-45-18.036447,"72.21,68.45"
2024-05-28_13-45-18.069099,"50.02,85.93"
2024-05-28_13-45-18.101784,"98.68,85.18"
2024-05-28_13-45-18.130538,"60.45,69.56"
2024-05-28_13-45-18.163356,"79.60,59.84"
2024-05-28_13-45-18.196024,"85.40,47.06"
2024-05-28_13-45-18.229030,"61.59,63.54"
2024-05-28_13-45-18.261629,"61.24,60.23"
2024-05-28_13-45-18.294355,"55.26,65.02"
2024-05-28_13-45-18.327075,"52.45,70.51"
2024-05-28_13-45-18.355866,"62.84,67.32"
2024-05-28_13-45-18.388605,"72.45,78.77"
2024-05-28_13-45-18.421355,"50.08,74.68"
2024-05-28_13-45-18.454133,"87.55,70.53"
2024-05-28_13-45-18.486925,"73.66,76.85"
2024-05-28_13-45-18.519641,"83.15,50.13"
2024-05-28_13-45-18.552322,"94.00,40.22"
2024-05-28_13-45-18.581097,"77.54,58.84"
2024-05-28_13-45-18.614568,"72.57,47.66"
2024-05-28_13-45-18.649682,"44.04,69.74"
2024-05-28_13-45-18.680284,"61.00,75.45"
2024-05-28_13-45-18.712287,"60.01,67.77"
2024-05-28_13-45-18.745048,"66.03,71.98"
2024-05-28_13-45-18.777810,"61.82,70.60"
2024-05-28_13-45-18.806480,"69.67,81.20"
2024-05-28_13-45-18.839131,"91.01,75.07"
2024-05-28_13-45-18.871978,"62.75,74.32"
2024-05-28_13-45-18.904763,"85.65,60.33"
2024-05-28_13-45-18.937459,"87.10,48.89"
2024-05-28_13-45-18.970286,"57.13,66.11"
2024-05-28_13-45-19.002922,"52.06,74.01"
2024-05-28_13-45-19.035615,"55.57,64.66"
2024-05-28_13-45-19.064345,"54.18,70.56"
2024-05-28_13-45-19.097211,"63.10,66.69"
2024-05-28_13-45-19.130038,"63.90,78.13"
2024-05-28_13-45-19.162717,"50.58,74.21"
2024-05-28_13-45-19.195429,"89.49,70.11"
2024-05-28_13-45-19.228116,"71.66,76.09"
2024-05-28_13-45-19.260894,"82.00,67.00"
2024-05-28_13-45-19.289712,"84.43,41.88"
2024-05-28_13-45-19.322624,"78.18,58.49"
2024-05-28_13-45-19.355185,"69.55,46.78"
2024-05-28_13-45-19.387894,"44.06,69.77"
2024-05-28_13-45-19.420728,"61.96,75.74"
2024-05-28_13-45-19.453443,"57.77,66.46"
2024-05-28_13-45-19.486140,"68.82,72.10"
2024-05-28_13-45-19.514879,"64.29,69.02"
2024-05-28_13-45-19.547671,"51.78,82.53"
2024-05-28_13-45-19.580525,"90.50,76.61"
2024-05-28_13-45-19.613200,"61.44,69.36"
2024-05-28_13-45-19.646052,"81.34,39.21"
2024-05-28_13-45-19.678717,"95.90,46.55"
2024-05-28_13-45-19.711504,"60.07,55.42"
2024-05-28_13-45-19.740218,"51.17,74.40"
2024-05-28_13-45-19.772976,"55.82,64.78"
2024-05-28_13-45-19.805773,"53.23,70.54"
2024-05-28_13-45-19.838500,"60.08,68.18"
2024-05-28_13-45-19.871207,"78.09,69.64"
2024-05-28_13-45-19.903981,"50.65,75.21"
2024-05-28_13-45-19.936680,"77.74,75.06"
2024-05-28_13-45-19.965526,"72.44,75.63"
2024-05-28_13-45-19.998171,"82.61,66.89"
2024-05-28_13-45-20.031008,"92.91,40.06"
2024-05-28_13-45-20.063720,"78.04,59.00"
2024-05-28_13-45-20.096650,"70.86,47.00"
2024-05-28_13-45-20.129241,"42.31,69.97"
2024-05-28_13-45-20.161937,"60.58,75.64"
