timestamp,EMG
2024-05-29_12-41-41.557358,74.27
2024-05-29_12-41-41.589009,83.13
2024-05-29_12-41-41.621776,86.95
2024-05-29_12-41-41.654444,76.69
2024-05-29_12-41-41.683231,65.44
2024-05-29_12-41-41.715998,61.30
2024-05-29_12-41-41.749757,72.92
2024-05-29_12-41-41.781585,83.63
2024-05-29_12-41-41.814264,73.81
2024-05-29_12-41-41.847205,64.26
2024-05-29_12-41-41.879693,78.73
2024-05-29_12-41-41.908473,65.84
2024-05-29_12-41-41.941205,82.19
2024-05-29_12-41-41.975286,60.02
2024-05-29_12-41-42.006764,71.64
2024-05-29_12-41-42.039509,73.71
2024-05-29_12-41-42.072338,84.43
2024-05-29_12-41-42.105038,74.35
2024-05-29_12-41-42.133696,73.18
2024-05-29_12-41-42.166498,74.43
2024-05-29_12-41-42.199243,79.89
2024-05-29_12-41-42.234370,77.43
2024-05-29_12-41-42.264815,55.14
2024-05-29_12-41-42.297557,76.27
2024-05-29_12-41-42.330293,73.48
2024-05-29_12-41-42.363064,84.30
2024-05-29_12-41-42.391795,74.15
2024-05-29_12-41-42.424499,74.11
2024-05-29_12-41-42.457495,76.69
2024-05-29_12-41-42.490035,64.08
2024-05-29_12-41-42.522843,87.19
2024-05-29_12-41-42.555560,54.82
2024-05-29_12-41-42.588328,73.32
2024-05-29_12-41-42.616955,73.47
2024-05-29_12-41-42.649722,83.96
2024-05-29_12-41-42.682516,74.76
2024-05-29_12-41-42.715312,73.39
2024-05-29_12-41-42.748042,68.44
2024-05-29_12-41-42.780858,81.44
2024-05-29_12-41-42.813703,76.29
2024-05-29_12-41-42.842292,71.70
2024-05-29_12-41-42.875039,75.66
2024-05-29_12-41-42.907810,73.75
2024-05-29_12-41-42.940517,84.30
2024-05-29_12-41-42.973328,74.24
2024-05-29_12-41-43.006090,84.57
2024-05-29_12-41-43.038813,79.48
2024-05-29_12-41-43.071791,71.68
2024-05-29_12-41-43.100303,63.22
2024-05-29_12-41-43.133018,61.62
2024-05-29_12-41-43.165902,74.19
2024-05-29_12-41-43.198671,74.15
2024-05-29_12-41-43.231410,83.60
2024-05-29_12-41-43.264186,74.32
2024-05-29_12-41-43.296801,73.29
2024-05-29_12-41-43.325532,69.39
2024-05-29_12-41-43.358274,81.36
2024-05-29_12-41-43.391058,73.19
2024-05-29_12-41-43.423840,70.69
2024-05-29_12-41-43.456633,74.86
2024-05-29_12-41-43.489391,74.35
2024-05-29_12-41-43.522307,83.79
2024-05-29_12-41-43.550788,73.81
2024-05-29_12-41-43.583594,81.09
2024-05-29_12-41-43.616336,66.81
2024-05-29_12-41-43.649104,80.34
2024-05-29_12-41-43.681851,73.43
2024-05-29_12-41-43.714624,61.76
2024-05-29_12-41-43.747354,73.99
2024-05-29_12-41-43.776094,74.46
2024-05-29_12-41-43.808902,91.66
2024-05-29_12-41-43.841592,75.50
2024-05-29_12-41-43.874351,78.12
2024-05-29_12-41-43.907150,63.86
2024-05-29_12-41-43.939940,81.17
2024-05-29_12-41-43.972666,58.89
2024-05-29_12-41-44.005321,71.18
2024-05-29_12-41-44.034185,74.41
2024-05-29_12-41-44.066984,73.55
2024-05-29_12-41-44.100201,84.71
2024-05-29_12-41-44.132474,73.06
2024-05-29_12-41-44.165247,74.66
2024-05-29_12-41-44.198008,72.34
2024-05-29_12-41-44.230751,75.00
2024-05-29_12-41-44.259331,60.09
2024-05-29_12-41-44.292129,61.95
2024-05-29_12-41-44.324949,73.81
2024-05-29_12-41-44.357660,73.15
2024-05-29_12-41-44.390448,83.96
2024-05-29_12-41-44.423238,74.16
2024-05-29_12-41-44.455934,75.62
2024-05-29_12-41-44.484716,66.52
2024-05-29_12-41-44.517428,81.39
2024-05-29_12-41-44.550167,44.21
2024-05-29_12-41-44.582935,73.53
2024-05-29_12-41-44.615668,74.20
2024-05-29_12-41-44.648457,73.12
2024-05-29_12-41-44.681262,83.87
2024-05-29_12-41-44.709882,73.54
2024-05-29_12-41-44.742795,68.57
2024-05-29_12-41-44.785641,76.40
2024-05-29_12-41-44.808225,68.90
2024-05-29_12-41-44.840934,73.05
2024-05-29_12-41-44.875774,73.77
2024-05-29_12-41-44.907097,74.37
2024-05-29_12-41-44.939334,72.73
2024-05-29_12-41-44.968047,83.90
2024-05-29_12-41-45.000853,72.32
2024-05-29_12-41-45.033511,76.71
2024-05-29_12-41-45.066236,73.87
2024-05-29_12-41-45.099007,81.02
2024-05-29_12-41-45.131695,60.91
2024-05-29_12-41-45.164495,72.93
2024-05-29_12-41-45.193183,74.06
2024-05-29_12-41-45.225940,74.21
2024-05-29_12-41-45.258688,84.44
2024-05-29_12-41-45.291456,73.49
2024-05-29_12-41-45.324230,67.23
2024-05-29_12-41-45.357098,75.48
2024-05-29_12-41-45.389766,73.47
2024-05-29_12-41-45.418440,58.38
2024-05-29_12-41-45.451313,75.43
2024-05-29_12-41-45.484056,74.03
2024-05-29_12-41-45.516855,73.45
2024-05-29_12-41-45.549555,84.35
2024-05-29_12-41-45.582271,78.46
2024-05-29_12-41-45.615079,64.47
2024-05-29_12-41-45.647755,72.53
2024-05-29_12-41-45.676457,82.99
2024-05-29_12-41-45.709300,62.53
2024-05-29_12-41-45.741990,73.97
2024-05-29_12-41-45.774740,73.94
2024-05-29_12-41-45.807475,73.72
2024-05-29_12-41-45.840310,76.17
2024-05-29_12-41-45.873076,84.16
2024-05-29_12-41-45.901667,80.80
2024-05-29_12-41-45.934490,60.63
2024-05-29_12-41-45.967234,65.98
2024-05-29_12-41-46.000084,71.00
2024-05-29_12-41-46.032771,74.78
2024-05-29_12-41-46.065554,74.07
2024-05-29_12-41-46.098300,73.22
2024-05-29_12-41-46.126924,84.42
2024-05-29_12-41-46.159795,76.72
2024-05-29_12-41-46.192567,65.94
2024-05-29_12-41-46.225294,73.05
2024-05-29_12-41-46.258055,79.50
2024-05-29_12-41-46.290771,61.99
2024-05-29_12-41-46.323538,73.71
2024-05-29_12-41-46.352272,74.86
2024-05-29_12-41-46.385102,73.54
2024-05-29_12-41-46.417801,84.07
2024-05-29_12-41-46.450518,84.22
2024-05-29_12-41-46.483340,64.71
2024-05-29_12-41-46.516118,62.77
2024-05-29_12-41-46.548869,66.58
2024-05-29_12-41-46.581512,70.69
2024-05-29_12-41-46.611383,74.60
2024-05-29_12-41-46.646057,74.54
2024-05-29_12-41-46.676428,73.19
2024-05-29_12-41-46.708633,84.02
2024-05-29_12-41-46.741437,76.79
2024-05-29_12-41-46.774296,67.38
2024-05-29_12-41-46.806978,72.66
2024-05-29_12-41-46.835805,77.16
2024-05-29_12-41-46.868324,74.82
2024-05-29_12-41-46.901097,73.92
2024-05-29_12-41-46.933842,74.90
2024-05-29_12-41-46.966891,73.51
2024-05-29_12-41-46.999527,83.96
2024-05-29_12-41-47.032084,77.49
2024-05-29_12-41-47.060762,63.27
2024-05-29_12-41-47.093561,80.70
2024-05-29_12-41-47.126294,66.01
2024-05-29_12-41-47.159267,72.31
2024-05-29_12-41-47.192016,73.51
2024-05-29_12-41-47.224619,74.37
2024-05-29_12-41-47.258101,74.42
2024-05-29_12-41-47.290110,83.27
2024-05-29_12-41-47.318835,69.57
2024-05-29_12-41-47.351611,75.64
2024-05-29_12-41-47.384341,87.26
2024-05-29_12-41-47.417146,59.40
2024-05-29_12-41-47.449862,76.07
2024-05-29_12-41-47.482627,73.89
2024-05-29_12-41-47.515326,73.65
2024-05-29_12-41-47.544092,74.28
2024-05-29_12-41-47.576777,87.65
2024-05-29_12-41-47.609606,64.37
2024-05-29_12-41-47.642382,70.67
2024-05-29_12-41-47.675063,83.90
2024-05-29_12-41-47.707985,69.27
2024-05-29_12-41-47.740579,74.41
2024-05-29_12-41-47.769312,73.75
2024-05-29_12-41-47.802279,83.53
2024-05-29_12-41-47.834962,63.82
2024-05-29_12-41-47.867608,89.81
2024-05-29_12-41-47.900357,61.99
2024-05-29_12-41-47.933171,75.38
2024-05-29_12-41-47.965852,67.36
2024-05-29_12-41-47.994569,70.05
2024-05-29_12-41-48.027322,74.61
2024-05-29_12-41-48.060118,73.94
2024-05-29_12-41-48.092853,73.23
2024-05-29_12-41-48.125696,73.92
2024-05-29_12-41-48.158398,93.26
2024-05-29_12-41-48.191394,77.36
2024-05-29_12-41-48.223932,69.96
2024-05-29_12-41-48.252620,72.97
2024-05-29_12-41-48.285411,82.17
2024-05-29_12-41-48.318131,73.73
2024-05-29_12-41-48.351007,73.43
2024-05-29_12-41-48.383649,74.51
2024-05-29_12-41-48.416426,74.47
2024-05-29_12-41-48.449134,83.67
2024-05-29_12-41-48.477893,64.83
2024-05-29_12-41-48.510676,41.32
2024-05-29_12-41-48.543486,75.74
2024-05-29_12-41-48.576231,72.53
2024-05-29_12-41-48.608992,74.61
2024-05-29_12-41-48.641704,73.76
2024-05-29_12-41-48.674449,74.05
2024-05-29_12-41-48.703130,74.43
2024-05-29_12-41-48.736036,77.05
2024-05-29_12-41-48.768664,76.80
2024-05-29_12-41-48.801405,54.45
2024-05-29_12-41-48.834222,59.97
2024-05-29_12-41-48.866973,83.75
2024-05-29_12-41-48.899707,74.62
2024-05-29_12-41-48.934098,73.55
2024-05-29_12-41-48.961207,74.63
2024-05-29_12-41-49.011355,83.16
2024-05-29_12-41-49.026743,69.76
2024-05-29_12-41-49.059641,72.32
2024-05-29_12-41-49.092459,58.79
2024-05-29_12-41-49.125185,54.20
2024-05-29_12-41-49.157757,84.56
2024-05-29_12-41-49.186499,74.32
2024-05-29_12-41-49.219198,73.90
2024-05-29_12-41-49.251944,73.99
2024-05-29_12-41-49.284759,76.90
2024-05-29_12-41-49.317538,74.86
2024-05-29_12-41-49.350323,76.15
2024-05-29_12-41-49.383009,75.68
2024-05-29_12-41-49.411855,60.16
2024-05-29_12-41-49.444525,83.51
2024-05-29_12-41-49.477297,74.27
2024-05-29_12-41-49.510008,73.99
2024-05-29_12-41-49.543025,74.44
2024-05-29_12-41-49.575915,79.56
2024-05-29_12-41-49.608295,77.65
2024-05-29_12-41-49.640994,76.28
2024-05-29_12-41-49.669732,54.03
2024-05-29_12-41-49.702486,73.11
2024-05-29_12-41-49.735421,83.85
2024-05-29_12-41-49.768083,73.93
2024-05-29_12-41-49.800800,74.55
2024-05-29_12-41-49.833641,91.97
2024-05-29_12-41-49.866536,54.68
2024-05-29_12-41-49.895743,68.39
2024-05-29_12-41-49.929726,73.74
2024-05-29_12-41-49.960718,55.41
2024-05-29_12-41-49.993420,75.20
2024-05-29_12-41-50.026173,83.93
2024-05-29_12-41-50.058876,74.25
2024-05-29_12-41-50.091722,74.60
2024-05-29_12-41-50.120285,72.58
2024-05-29_12-41-50.153021,78.10
2024-05-29_12-41-50.185800,59.70
2024-05-29_12-41-50.218609,68.86
2024-05-29_12-41-50.251282,60.75
2024-05-29_12-41-50.284110,73.45
2024-05-29_12-41-50.316820,84.81
2024-05-29_12-41-50.345485,73.37
2024-05-29_12-41-50.378256,74.36
2024-05-29_12-41-50.411067,79.40
2024-05-29_12-41-50.443972,62.82
2024-05-29_12-41-50.476550,81.26
2024-05-29_12-41-50.509328,73.41
2024-05-29_12-41-50.542134,55.44
2024-05-29_12-41-50.574783,74.31
2024-05-29_12-41-50.603533,84.60
2024-05-29_12-41-50.636411,73.99
2024-05-29_12-41-50.669073,73.10
2024-05-29_12-41-50.701823,79.31
2024-05-29_12-41-50.734600,74.86
2024-05-29_12-41-50.767453,61.46
2024-05-29_12-41-50.800188,71.71
2024-05-29_12-41-50.828821,76.69
2024-05-29_12-41-50.861650,72.71
2024-05-29_12-41-50.894254,84.85
2024-05-29_12-41-50.927091,73.72
2024-05-29_12-41-50.959884,73.59
2024-05-29_12-41-50.992610,78.58
2024-05-29_12-41-51.025391,64.56
2024-05-29_12-41-51.054069,79.80
2024-05-29_12-41-51.086862,59.37
2024-05-29_12-41-51.119599,71.56
2024-05-29_12-41-51.152410,73.43
2024-05-29_12-41-51.194160,83.91
2024-05-29_12-41-51.217955,74.25
2024-05-29_12-41-51.250648,72.97
2024-05-29_12-41-51.279363,78.85
2024-05-29_12-41-51.312179,74.47
2024-05-29_12-41-51.344914,78.43
2024-05-29_12-41-51.377619,67.49
2024-05-29_12-41-51.410386,75.94
2024-05-29_12-41-51.443099,73.68
2024-05-29_12-41-51.475913,83.38
2024-05-29_12-41-51.508648,73.50
2024-05-29_12-41-51.537296,74.27
2024-05-29_12-41-51.570065,77.25
2024-05-29_12-41-51.602851,63.87
2024-05-29_12-41-51.635641,82.26
2024-05-29_12-41-51.668373,59.67
2024-05-29_12-41-51.701157,72.04
2024-05-29_12-41-51.733915,74.10
2024-05-29_12-41-51.762708,84.46
2024-05-29_12-41-51.795336,74.12
2024-05-29_12-41-51.828093,61.38
2024-05-29_12-41-51.860872,75.20
2024-05-29_12-41-51.893680,76.86
2024-05-29_12-41-51.926567,80.04
2024-05-29_12-41-51.959250,52.47
2024-05-29_12-41-51.987847,75.66
2024-05-29_12-41-52.020710,73.65
2024-05-29_12-41-52.053429,84.43
2024-05-29_12-41-52.086179,73.72
2024-05-29_12-41-52.118930,74.42
2024-05-29_12-41-52.151693,75.06
2024-05-29_12-41-52.184449,62.89
2024-05-29_12-41-52.213096,83.28
2024-05-29_12-41-52.245840,74.32
2024-05-29_12-41-52.278635,73.14
2024-05-29_12-41-52.311382,73.72
2024-05-29_12-41-52.344140,84.64
2024-05-29_12-41-52.376894,74.14
2024-05-29_12-41-52.409694,73.04
2024-05-29_12-41-52.442447,67.89
2024-05-29_12-41-52.471082,81.58
2024-05-29_12-41-52.503901,81.15
2024-05-29_12-41-52.536673,55.86
2024-05-29_12-41-52.569485,75.90
2024-05-29_12-41-52.602290,73.34
2024-05-29_12-41-52.634999,84.31
2024-05-29_12-41-52.667811,74.08
2024-05-29_12-41-52.696424,84.01
2024-05-29_12-41-52.729156,78.34
2024-05-29_12-41-52.762057,71.35
2024-05-29_12-41-52.794792,70.63
2024-05-29_12-41-52.827503,75.35
2024-05-29_12-41-52.860174,74.69
2024-05-29_12-41-52.893004,73.44
2024-05-29_12-41-52.921657,84.40
2024-05-29_12-41-52.954414,74.73
2024-05-29_12-41-52.987201,73.40
2024-05-29_12-41-53.020009,78.56
2024-05-29_12-41-53.052760,66.68
2024-05-29_12-41-53.085531,58.01
2024-05-29_12-41-53.118246,71.46
2024-05-29_12-41-53.150962,75.21
2024-05-29_12-41-53.183246,73.81
2024-05-29_12-41-53.214877,83.91
2024-05-29_12-41-53.249247,74.71
2024-05-29_12-41-53.283031,74.58
2024-05-29_12-41-53.311314,70.06
2024-05-29_12-41-53.343662,80.75
2024-05-29_12-41-53.376369,72.66
2024-05-29_12-41-53.405052,61.91
2024-05-29_12-41-53.437798,73.94
2024-05-29_12-41-53.470674,74.16
2024-05-29_12-41-53.503235,83.74
2024-05-29_12-41-53.535994,74.29
2024-05-29_12-41-53.568766,85.02
2024-05-29_12-41-53.601584,77.90
2024-05-29_12-41-53.630212,81.00
2024-05-29_12-41-53.662954,63.57
2024-05-29_12-41-53.695777,71.87
2024-05-29_12-41-53.728608,74.51
2024-05-29_12-41-53.761330,74.50
2024-05-29_12-41-53.794098,83.64
2024-05-29_12-41-53.826866,81.26
2024-05-29_12-41-53.855528,69.09
2024-05-29_12-41-53.888392,75.03
2024-05-29_12-41-53.920980,87.69
2024-05-29_12-41-53.953744,56.36
2024-05-29_12-41-53.986503,75.15
2024-05-29_12-41-54.019537,73.79
2024-05-29_12-41-54.052648,74.56
2024-05-29_12-41-54.085065,83.87
2024-05-29_12-41-54.113539,72.40
2024-05-29_12-41-54.146306,75.91
2024-05-29_12-41-54.179029,73.57
2024-05-29_12-41-54.211857,79.01
2024-05-29_12-41-54.244589,43.59
2024-05-29_12-41-54.277382,72.70
2024-05-29_12-41-54.310032,73.70
2024-05-29_12-41-54.338744,73.52
2024-05-29_12-41-54.371585,83.98
2024-05-29_12-41-54.404296,72.89
2024-05-29_12-41-54.437009,66.69
2024-05-29_12-41-54.470244,75.33
2024-05-29_12-41-54.502839,78.06
2024-05-29_12-41-54.535648,55.22
2024-05-29_12-41-54.564062,75.08
2024-05-29_12-41-54.596853,74.46
2024-05-29_12-41-54.629605,73.09
2024-05-29_12-41-54.662331,83.43
2024-05-29_12-41-54.695122,80.06
2024-05-29_12-41-54.727811,65.36
2024-05-29_12-41-54.764812,70.66
2024-05-29_12-41-54.789330,72.23
2024-05-29_12-41-54.822124,73.53
2024-05-29_12-41-54.856729,73.71
2024-05-29_12-41-54.887745,74.12
2024-05-29_12-41-54.920411,73.69
2024-05-29_12-41-54.953184,84.18
2024-05-29_12-41-54.985936,76.98
2024-05-29_12-41-55.018595,64.98
2024-05-29_12-41-55.047325,76.28
2024-05-29_12-41-55.080170,74.95
2024-05-29_12-41-55.113330,70.85
2024-05-29_12-41-55.146085,74.33
2024-05-29_12-41-55.179150,74.31
2024-05-29_12-41-55.211258,73.89
2024-05-29_12-41-55.243924,83.92
2024-05-29_12-41-55.272660,68.46
2024-05-29_12-41-55.305731,76.24
2024-05-29_12-41-55.338163,80.77
2024-05-29_12-41-55.370913,59.56
2024-05-29_12-41-55.403696,75.31
2024-05-29_12-41-55.436464,74.01
2024-05-29_12-41-55.469158,73.88
2024-05-29_12-41-55.497856,74.04
2024-05-29_12-41-55.530676,83.13
2024-05-29_12-41-55.563356,76.10
2024-05-29_12-41-55.596141,75.19
2024-05-29_12-41-55.628901,56.53
2024-05-29_12-41-55.661732,67.99
2024-05-29_12-41-55.694428,73.64
2024-05-29_12-41-55.727195,74.62
2024-05-29_12-41-55.755931,74.23
2024-05-29_12-41-55.788740,78.20
2024-05-29_12-41-55.821425,86.16
2024-05-29_12-41-55.854251,65.35
2024-05-29_12-41-55.887006,77.10
2024-05-29_12-41-55.919782,89.82
2024-05-29_12-41-55.952469,59.23
2024-05-29_12-41-55.981147,75.04
2024-05-29_12-41-56.013935,74.45
2024-05-29_12-41-56.046726,73.85
2024-05-29_12-41-56.079431,74.03
2024-05-29_12-41-56.112181,88.83
2024-05-29_12-41-56.144946,64.57
2024-05-29_12-41-56.177763,72.94
2024-05-29_12-41-56.206395,72.03
2024-05-29_12-41-56.239172,69.54
2024-05-29_12-41-56.271933,73.72
2024-05-29_12-41-56.304742,73.89
2024-05-29_12-41-56.337486,74.25
2024-05-29_12-41-56.370236,73.24
2024-05-29_12-41-56.403035,88.94
2024-05-29_12-41-56.431757,62.51
2024-05-29_12-41-56.464439,79.22
2024-05-29_12-41-56.497215,66.15
2024-05-29_12-41-56.530019,71.75
2024-05-29_12-41-56.562758,73.81
2024-05-29_12-41-56.595505,74.29
2024-05-29_12-41-56.628272,74.61
2024-05-29_12-41-56.660940,73.70
2024-05-29_12-41-56.689741,92.17
2024-05-29_12-41-56.722491,77.72
2024-05-29_12-41-56.755327,53.43
2024-05-29_12-41-56.788429,74.80
2024-05-29_12-41-56.823349,84.17
2024-05-29_12-41-56.853596,73.68
2024-05-29_12-41-56.886215,73.79
2024-05-29_12-41-56.915012,75.32
2024-05-29_12-41-56.947786,73.28
2024-05-29_12-41-56.980500,85.20
2024-05-29_12-41-57.013306,57.38
2024-05-29_12-41-57.046026,72.55
2024-05-29_12-41-57.078770,54.99
2024-05-29_12-41-57.111461,85.46
2024-05-29_12-41-57.140218,73.97
2024-05-29_12-41-57.173005,74.09
2024-05-29_12-41-57.206269,74.85
2024-05-29_12-41-57.238786,72.30
2024-05-29_12-41-57.271345,80.66
2024-05-29_12-41-57.304128,75.06
2024-05-29_12-41-57.336838,70.73
2024-05-29_12-41-57.369494,59.91
2024-05-29_12-41-57.398211,84.23
2024-05-29_12-41-57.431032,73.94
2024-05-29_12-41-57.463845,72.93
2024-05-29_12-41-57.496519,74.63
2024-05-29_12-41-57.529257,84.48
2024-05-29_12-41-57.562042,69.60
2024-05-29_12-41-57.594757,71.01
2024-05-29_12-41-57.623567,86.02
2024-05-29_12-41-57.656271,55.23
2024-05-29_12-41-57.689023,83.86
2024-05-29_12-41-57.721781,74.50
2024-05-29_12-41-57.754549,74.31
2024-05-29_12-41-57.787799,63.57
2024-05-29_12-41-57.820216,82.84
2024-05-29_12-41-57.848776,73.49
2024-05-29_12-41-57.881521,60.32
2024-05-29_12-41-57.915424,71.15
2024-05-29_12-41-57.947047,59.85
2024-05-29_12-41-57.979815,83.23
2024-05-29_12-41-58.012647,73.98
2024-05-29_12-41-58.045344,73.55
2024-05-29_12-41-58.074035,73.87
2024-05-29_12-41-58.106787,92.61
2024-05-29_12-41-58.139567,77.47
2024-05-29_12-41-58.172302,51.70
2024-05-29_12-41-58.205107,60.74
2024-05-29_12-41-58.237857,72.30
2024-05-29_12-41-58.270659,83.55
2024-05-29_12-41-58.303402,73.86
2024-05-29_12-41-58.332083,74.11
2024-05-29_12-41-58.364793,76.00
2024-05-29_12-41-58.397578,72.06
2024-05-29_12-41-58.430425,84.35
2024-05-29_12-41-58.463146,79.28
2024-05-29_12-41-58.495919,53.90
2024-05-29_12-41-58.528690,74.40
2024-05-29_12-41-58.557418,84.10
2024-05-29_12-41-58.590125,74.31
2024-05-29_12-41-58.622885,73.34
2024-05-29_12-41-58.655680,74.74
2024-05-29_12-41-58.688415,78.73
2024-05-29_12-41-58.721173,75.21
2024-05-29_12-41-58.753871,69.74
2024-05-29_12-41-58.782581,62.65
2024-05-29_12-41-58.815334,73.22
2024-05-29_12-41-58.848111,84.38
2024-05-29_12-41-58.880904,74.63
2024-05-29_12-41-58.913657,74.09
2024-05-29_12-41-58.946386,79.10
2024-05-29_12-41-58.979136,65.94
2024-05-29_12-41-59.011894,80.05
2024-05-29_12-41-59.040625,74.88
2024-05-29_12-41-59.073362,55.79
2024-05-29_12-41-59.106146,74.11
2024-05-29_12-41-59.138885,84.09
2024-05-29_12-41-59.171686,74.88
2024-05-29_12-41-59.204482,73.23
2024-05-29_12-41-59.237251,79.57
2024-05-29_12-41-59.269914,75.81
2024-05-29_12-41-59.298624,75.78
2024-05-29_12-41-59.331341,67.35
2024-05-29_12-41-59.364083,62.16
2024-05-29_12-41-59.397487,72.89
2024-05-29_12-41-59.429721,84.45
2024-05-29_12-41-59.462434,74.22
2024-05-29_12-41-59.491111,74.08
2024-05-29_12-41-59.523908,92.96
2024-05-29_12-41-59.556635,65.09
2024-05-29_12-41-59.589413,67.42
2024-05-29_12-41-59.622195,62.84
2024-05-29_12-41-59.654912,72.77
2024-05-29_12-41-59.687714,74.68
2024-05-29_12-41-59.720421,83.79
2024-05-29_12-41-59.749153,74.54
2024-05-29_12-41-59.781954,66.76
2024-05-29_12-41-59.814681,75.36
2024-05-29_12-41-59.847648,83.45
2024-05-29_12-41-59.880257,58.74
2024-05-29_12-41-59.913105,52.51
2024-05-29_12-41-59.945952,75.71
2024-05-29_12-41-59.974441,73.99
2024-05-29_12-42-00.007333,83.79
2024-05-29_12-42-00.040151,73.99
2024-05-29_12-42-00.072733,73.38
2024-05-29_12-42-00.105495,75.89
2024-05-29_12-42-00.138288,70.60
2024-05-29_12-42-00.171129,81.87
2024-05-29_12-42-00.199683,62.16
2024-05-29_12-42-00.232454,73.39
2024-05-29_12-42-00.265241,74.47
2024-05-29_12-42-00.297990,83.69
2024-05-29_12-42-00.330738,74.13
2024-05-29_12-42-00.363564,74.69
2024-05-29_12-42-00.396335,83.56
2024-05-29_12-42-00.425113,83.45
2024-05-29_12-42-00.457808,59.25
2024-05-29_12-42-00.490477,53.80
2024-05-29_12-42-00.525871,75.21
2024-05-29_12-42-00.556048,73.53
2024-05-29_12-42-00.588754,84.73
2024-05-29_12-42-00.621591,72.96
2024-05-29_12-42-00.654242,82.55
2024-05-29_12-42-00.686624,66.18
2024-05-29_12-42-00.716153,70.69
2024-05-29_12-42-00.748480,70.46
2024-05-29_12-42-00.785289,76.18
2024-05-29_12-42-00.814127,73.86
2024-05-29_12-42-00.846796,73.07
2024-05-29_12-42-00.879566,84.44
2024-05-29_12-42-00.908217,74.49
2024-05-29_12-42-00.940999,84.00
2024-05-29_12-42-00.973772,79.07
2024-05-29_12-42-01.006562,80.46
2024-05-29_12-42-01.039272,73.33
2024-05-29_12-42-01.072005,55.21
2024-05-29_12-42-01.104766,74.60
2024-05-29_12-42-01.133459,73.19
2024-05-29_12-42-01.166226,84.00
2024-05-29_12-42-01.199038,73.40
2024-05-29_12-42-01.231963,75.69
2024-05-29_12-42-01.264614,67.88
2024-05-29_12-42-01.297284,78.65
2024-05-29_12-42-01.330086,72.36
2024-05-29_12-42-01.362752,76.93
2024-05-29_12-42-01.391558,73.91
2024-05-29_12-42-01.424273,72.99
2024-05-29_12-42-01.457037,83.78
2024-05-29_12-42-01.489783,74.17
2024-05-29_12-42-01.522567,80.66
2024-05-29_12-42-01.555330,63.61
2024-05-29_12-42-01.588037,81.99
2024-05-29_12-42-01.616736,59.94
2024-05-29_12-42-01.649539,71.28
2024-05-29_12-42-01.682493,74.30
2024-05-29_12-42-01.715127,73.90
2024-05-29_12-42-01.747860,84.27
2024-05-29_12-42-01.780596,85.00
2024-05-29_12-42-01.813318,82.71
2024-05-29_12-42-01.842031,77.79
2024-05-29_12-42-01.874828,74.39
2024-05-29_12-42-01.907566,63.29
2024-05-29_12-42-01.940334,76.07
2024-05-29_12-42-01.973146,73.99
2024-05-29_12-42-02.006228,73.65
2024-05-29_12-42-02.038679,84.39
2024-05-29_12-42-02.067273,72.85
2024-05-29_12-42-02.100063,76.02
2024-05-29_12-42-02.149577,73.93
2024-05-29_12-42-02.165818,78.57
2024-05-29_12-42-02.204123,62.81
2024-05-29_12-42-02.231360,73.36
2024-05-29_12-42-02.264275,74.34
2024-05-29_12-42-02.296642,74.12
2024-05-29_12-42-02.325318,84.41
2024-05-29_12-42-02.358126,73.45
2024-05-29_12-42-02.391414,74.45
2024-05-29_12-42-02.423884,60.56
2024-05-29_12-42-02.456417,76.83
2024-05-29_12-42-02.489183,71.62
2024-05-29_12-42-02.521905,75.14
2024-05-29_12-42-02.550614,74.14
2024-05-29_12-42-02.583368,73.44
2024-05-29_12-42-02.616188,84.74
2024-05-29_12-42-02.649050,77.99
2024-05-29_12-42-02.681667,64.39
2024-05-29_12-42-02.714423,74.00
2024-05-29_12-42-02.747261,54.07
2024-05-29_12-42-02.776173,75.02
2024-05-29_12-42-02.808966,74.08
2024-05-29_12-42-02.841385,74.58
2024-05-29_12-42-02.874116,73.69
2024-05-29_12-42-02.906989,84.00
2024-05-29_12-42-02.939692,84.32
2024-05-29_12-42-02.973741,78.71
2024-05-29_12-42-03.005066,62.32
2024-05-29_12-42-03.033864,66.26
2024-05-29_12-42-03.066681,71.13
2024-05-29_12-42-03.099436,74.62
2024-05-29_12-42-03.132181,74.54
2024-05-29_12-42-03.164952,72.94
2024-05-29_12-42-03.197696,84.05
2024-05-29_12-42-03.230504,86.88
2024-05-29_12-42-03.259144,75.71
2024-05-29_12-42-03.291925,75.38
2024-05-29_12-42-03.324682,61.24
2024-05-29_12-42-03.357498,75.68
2024-05-29_12-42-03.390204,73.65
2024-05-29_12-42-03.422968,75.24
2024-05-29_12-42-03.455698,73.45
2024-05-29_12-42-03.484410,82.81
2024-05-29_12-42-03.517114,76.78
2024-05-29_12-42-03.549911,73.73
2024-05-29_12-42-03.582801,77.47
2024-05-29_12-42-03.615495,51.95
2024-05-29_12-42-03.648196,72.62
2024-05-29_12-42-03.680966,73.75
2024-05-29_12-42-03.709645,74.40
2024-05-29_12-42-03.742455,74.27
2024-05-29_12-42-03.775276,86.50
2024-05-29_12-42-03.807965,67.15
2024-05-29_12-42-03.840768,75.78
2024-05-29_12-42-03.873476,80.63
2024-05-29_12-42-03.906249,58.37
2024-05-29_12-42-03.938936,76.26
2024-05-29_12-42-03.967665,73.49
2024-05-29_12-42-04.000454,73.65
2024-05-29_12-42-04.033243,74.49
2024-05-29_12-42-04.066002,82.80
2024-05-29_12-42-04.098737,77.09
2024-05-29_12-42-04.131509,72.05
2024-05-29_12-42-04.164264,72.37
2024-05-29_12-42-04.192916,68.04
2024-05-29_12-42-04.225755,74.28
2024-05-29_12-42-04.258462,73.63
2024-05-29_12-42-04.291233,74.04
2024-05-29_12-42-04.324014,73.43
2024-05-29_12-42-04.356743,93.55
2024-05-29_12-42-04.389544,76.22
2024-05-29_12-42-04.418239,75.17
2024-05-29_12-42-04.451016,67.18
2024-05-29_12-42-04.483860,69.88
2024-05-29_12-42-04.516505,74.47
2024-05-29_12-42-04.549222,74.03
2024-05-29_12-42-04.582058,73.44
2024-05-29_12-42-04.614776,73.83
2024-05-29_12-42-04.647520,86.43
2024-05-29_12-42-04.676237,68.11
2024-05-29_12-42-04.708978,70.29
2024-05-29_12-42-04.741755,60.36
2024-05-29_12-42-04.774549,82.77
2024-05-29_12-42-04.807275,74.06
2024-05-29_12-42-04.840120,73.55
2024-05-29_12-42-04.875342,74.41
2024-05-29_12-42-04.901696,73.82
2024-05-29_12-42-04.934278,85.69
2024-05-29_12-42-04.967162,68.68
2024-05-29_12-42-04.999915,64.87
2024-05-29_12-42-05.032566,65.67
2024-05-29_12-42-05.065314,72.44
2024-05-29_12-42-05.098032,74.35
2024-05-29_12-42-05.126748,73.86
2024-05-29_12-42-05.159489,74.10
2024-05-29_12-42-05.192255,74.31
2024-05-29_12-42-05.225055,92.36
2024-05-29_12-42-05.257858,78.86
2024-05-29_12-42-05.290581,54.75
2024-05-29_12-42-05.323345,55.51
2024-05-29_12-42-05.351999,83.01
2024-05-29_12-42-05.384759,74.14
2024-05-29_12-42-05.417527,74.01
2024-05-29_12-42-05.450361,74.68
2024-05-29_12-42-05.483241,73.73
2024-05-29_12-42-05.515929,85.38
2024-05-29_12-42-05.548575,68.94
2024-05-29_12-42-05.581408,75.95
2024-05-29_12-42-05.610001,53.96
2024-05-29_12-42-05.642782,84.75
2024-05-29_12-42-05.675579,74.63
2024-05-29_12-42-05.708380,73.93
2024-05-29_12-42-05.741086,76.27
2024-05-29_12-42-05.773848,72.41
2024-05-29_12-42-05.806593,79.71
2024-05-29_12-42-05.835293,74.77
2024-05-29_12-42-05.868073,75.08
2024-05-29_12-42-05.900849,58.13
2024-05-29_12-42-05.933612,82.97
2024-05-29_12-42-05.966410,74.38
2024-05-29_12-42-05.999137,74.21
2024-05-29_12-42-06.031900,74.34
2024-05-29_12-42-06.060505,85.95
2024-05-29_12-42-06.093415,71.61
2024-05-29_12-42-06.126142,71.18
2024-05-29_12-42-06.158822,75.90
2024-05-29_12-42-06.191674,54.41
2024-05-29_12-42-06.224420,84.29
2024-05-29_12-42-06.257273,74.27
2024-05-29_12-42-06.289819,74.52
2024-05-29_12-42-06.318565,73.76
2024-05-29_12-42-06.351428,72.74
2024-05-29_12-42-06.384132,87.17
2024-05-29_12-42-06.416882,75.27
2024-05-29_12-42-06.449649,68.89
2024-05-29_12-42-06.482384,59.89
2024-05-29_12-42-06.515157,83.58
2024-05-29_12-42-06.543836,74.32
2024-05-29_12-42-06.576623,74.44
2024-05-29_12-42-06.609323,74.20
2024-05-29_12-42-06.642219,82.28
2024-05-29_12-42-06.674884,64.76
2024-05-29_12-42-06.707665,68.48
2024-05-29_12-42-06.740397,57.62
2024-05-29_12-42-06.769097,73.30
2024-05-29_12-42-06.801905,84.97
2024-05-29_12-42-06.834647,73.70
2024-05-29_12-42-06.867417,74.50
2024-05-29_12-42-06.900175,74.96
2024-05-29_12-42-06.932911,78.98
2024-05-29_12-42-06.965691,73.57
2024-05-29_12-42-06.994405,62.08
2024-05-29_12-42-07.027426,74.39
2024-05-29_12-42-07.059903,60.70
2024-05-29_12-42-07.092693,84.67
2024-05-29_12-42-07.125430,74.06
2024-05-29_12-42-07.158198,73.08
2024-05-29_12-42-07.190958,75.30
2024-05-29_12-42-07.223671,92.80
2024-05-29_12-42-07.252392,80.44
2024-05-29_12-42-07.285125,68.77
2024-05-29_12-42-07.317924,58.67
2024-05-29_12-42-07.350708,71.75
2024-05-29_12-42-07.383492,85.21
2024-05-29_12-42-07.430057,73.46
2024-05-29_12-42-07.469202,73.60
2024-05-29_12-42-07.478033,74.89
2024-05-29_12-42-07.510446,72.54
2024-05-29_12-42-07.543210,81.87
2024-05-29_12-42-07.575970,63.15
2024-05-29_12-42-07.608741,65.39
2024-05-29_12-42-07.641498,59.42
2024-05-29_12-42-07.674171,83.97
2024-05-29_12-42-07.702944,74.11
2024-05-29_12-42-07.735662,79.16
2024-05-29_12-42-07.768418,81.33
2024-05-29_12-42-07.801399,89.13
2024-05-29_12-42-07.834028,79.33
2024-05-29_12-42-07.866742,68.31
2024-05-29_12-42-07.899497,57.66
2024-05-29_12-42-07.928192,73.03
2024-05-29_12-42-07.960893,83.65
2024-05-29_12-42-07.993678,73.83
2024-05-29_12-42-08.026491,74.44
2024-05-29_12-42-08.059264,74.49
2024-05-29_12-42-08.091992,75.34
2024-05-29_12-42-08.124808,79.70
2024-05-29_12-42-08.157476,60.95
2024-05-29_12-42-08.186204,53.67
2024-05-29_12-42-08.218945,74.68
2024-05-29_12-42-08.251776,83.84
2024-05-29_12-42-08.284523,73.96
2024-05-29_12-42-08.317294,73.88
2024-05-29_12-42-08.350024,74.88
2024-05-29_12-42-08.382724,77.25
2024-05-29_12-42-08.411449,77.45
2024-05-29_12-42-08.444288,73.46
2024-05-29_12-42-08.476992,59.43
2024-05-29_12-42-08.509771,72.93
2024-05-29_12-42-08.542709,84.45
2024-05-29_12-42-08.575883,73.86
2024-05-29_12-42-08.608144,74.30
2024-05-29_12-42-08.640767,77.95
2024-05-29_12-42-08.669486,66.20
2024-05-29_12-42-08.702327,82.66
2024-05-29_12-42-08.735061,64.35
2024-05-29_12-42-08.767850,72.72
2024-05-29_12-42-08.800545,73.65
2024-05-29_12-42-08.833331,84.75
2024-05-29_12-42-08.866061,73.99
2024-05-29_12-42-08.894756,73.34
2024-05-29_12-42-08.927508,78.30
2024-05-29_12-42-08.960296,74.71
2024-05-29_12-42-08.993051,76.26
2024-05-29_12-42-09.025830,68.60
2024-05-29_12-42-09.058591,61.58
2024-05-29_12-42-09.091324,73.15
2024-05-29_12-42-09.120023,84.16
2024-05-29_12-42-09.152779,74.10
2024-05-29_12-42-09.185567,74.18
2024-05-29_12-42-09.218318,91.61
2024-05-29_12-42-09.251089,66.27
2024-05-29_12-42-09.286946,80.68
2024-05-29_12-42-09.327778,60.60
2024-05-29_12-42-09.345888,72.94
2024-05-29_12-42-09.379662,73.69
2024-05-29_12-42-09.411447,84.14
2024-05-29_12-42-09.443633,74.65
2024-05-29_12-42-09.476412,73.42
2024-05-29_12-42-09.509197,74.44
2024-05-29_12-42-09.541869,70.54
2024-05-29_12-42-09.574566,74.91
2024-05-29_12-42-09.603321,54.48
2024-05-29_12-42-09.636097,76.27
2024-05-29_12-42-09.669361,73.19
2024-05-29_12-42-09.702090,84.18
2024-05-29_12-42-09.734414,74.74
2024-05-29_12-42-09.767165,75.83
2024-05-29_12-42-09.799849,61.32
2024-05-29_12-42-09.828585,71.80
2024-05-29_12-42-09.870192,64.20
2024-05-29_12-42-09.894873,61.58
2024-05-29_12-42-09.926959,73.81
2024-05-29_12-42-09.959694,74.26
2024-05-29_12-42-09.992437,83.72
2024-05-29_12-42-10.025115,74.30
2024-05-29_12-42-10.053837,73.27
2024-05-29_12-42-10.086618,68.10
2024-05-29_12-42-10.119378,81.30
2024-05-29_12-42-10.152095,85.97
2024-05-29_12-42-10.184850,53.87
2024-05-29_12-42-10.217667,75.33
2024-05-29_12-42-10.250457,74.77
2024-05-29_12-42-10.283178,83.91
2024-05-29_12-42-10.311956,73.49
2024-05-29_12-42-10.344660,84.75
2024-05-29_12-42-10.377460,79.17
2024-05-29_12-42-10.410128,71.62
2024-05-29_12-42-10.442900,66.78
2024-05-29_12-42-10.475698,61.68
2024-05-29_12-42-10.508425,73.32
2024-05-29_12-42-10.538154,74.53
2024-05-29_12-42-10.569973,83.80
2024-05-29_12-42-10.602674,73.77
2024-05-29_12-42-10.635508,73.74
2024-05-29_12-42-10.668285,68.71
2024-05-29_12-42-10.701282,79.94
2024-05-29_12-42-10.733746,65.86
2024-05-29_12-42-10.762410,70.92
2024-05-29_12-42-10.795181,74.05
2024-05-29_12-42-10.827953,73.69
2024-05-29_12-42-10.860734,84.27
2024-05-29_12-42-10.893468,73.06
2024-05-29_12-42-10.926363,74.23
2024-05-29_12-42-10.958943,74.82
2024-05-29_12-42-10.987630,67.69
2024-05-29_12-42-11.020414,78.36
2024-05-29_12-42-11.053223,61.32
2024-05-29_12-42-11.086036,73.42
2024-05-29_12-42-11.118690,73.10
2024-05-29_12-42-11.151485,83.51
2024-05-29_12-42-11.184261,74.31
2024-05-29_12-42-11.216990,73.98
2024-05-29_12-42-11.245680,68.68
2024-05-29_12-42-11.278402,82.09
2024-05-29_12-42-11.311310,74.22
2024-05-29_12-42-11.343977,54.46
2024-05-29_12-42-11.376760,74.95
2024-05-29_12-42-11.409518,73.37
2024-05-29_12-42-11.442220,83.92
2024-05-29_12-42-11.471131,73.81
2024-05-29_12-42-11.510202,77.04
2024-05-29_12-42-11.540521,68.44
2024-05-29_12-42-11.569806,71.62
2024-05-29_12-42-11.602016,70.42
2024-05-29_12-42-11.634739,62.02
2024-05-29_12-42-11.667461,73.83
2024-05-29_12-42-11.696181,74.08
2024-05-29_12-42-11.728935,84.09
2024-05-29_12-42-11.761711,63.13
2024-05-29_12-42-11.794502,75.90
2024-05-29_12-42-11.827267,64.87
2024-05-29_12-42-11.860050,83.11
2024-05-29_12-42-11.892764,62.79
2024-05-29_12-42-11.925442,71.68
2024-05-29_12-42-11.954205,74.31
2024-05-29_12-42-11.986958,74.20
2024-05-29_12-42-12.019724,84.43
2024-05-29_12-42-12.052536,73.61
2024-05-29_12-42-12.085273,75.41
2024-05-29_12-42-12.118028,75.34
2024-05-29_12-42-12.150884,75.10
2024-05-29_12-42-12.179969,76.79
2024-05-29_12-42-12.212369,76.95
2024-05-29_12-42-12.254927,73.86
2024-05-29_12-42-12.278912,73.84
2024-05-29_12-42-12.310630,84.16
2024-05-29_12-42-12.343323,74.13
2024-05-29_12-42-12.376035,75.69
2024-05-29_12-42-12.404751,73.04
2024-05-29_12-42-12.437521,83.26
2024-05-29_12-42-12.470242,59.81
2024-05-29_12-42-12.503036,73.01
2024-05-29_12-42-12.535755,74.21
2024-05-29_12-42-12.568564,74.22
2024-05-29_12-42-12.601325,84.49
2024-05-29_12-42-12.629964,73.65
2024-05-29_12-42-12.662730,69.75
2024-05-29_12-42-12.695575,62.51
2024-05-29_12-42-12.728295,74.86
2024-05-29_12-42-12.761022,59.99
2024-05-29_12-42-12.793913,75.92
2024-05-29_12-42-12.826722,74.06
2024-05-29_12-42-12.859269,73.22
2024-05-29_12-42-12.888012,85.30
2024-05-29_12-42-12.920801,72.45
2024-05-29_12-42-12.953575,76.93
2024-05-29_12-42-12.986322,74.25
2024-05-29_12-42-13.019101,64.03
2024-05-29_12-42-13.051842,61.42
2024-05-29_12-42-13.084649,73.26
2024-05-29_12-42-13.113363,75.02
2024-05-29_12-42-13.146080,73.52
2024-05-29_12-42-13.178784,83.70
2024-05-29_12-42-13.211594,74.52
2024-05-29_12-42-13.244406,68.59
2024-05-29_12-42-13.277156,76.61
2024-05-29_12-42-13.309892,89.07
2024-05-29_12-42-13.338557,55.76
2024-05-29_12-42-13.371330,75.09
2024-05-29_12-42-13.404080,75.24
2024-05-29_12-42-13.436876,73.03
2024-05-29_12-42-13.469622,83.67
2024-05-29_12-42-13.502409,80.81
2024-05-29_12-42-13.535154,63.69
2024-05-29_12-42-13.567815,72.93
2024-05-29_12-42-13.596567,81.57
2024-05-29_12-42-13.629334,62.03
2024-05-29_12-42-13.662147,73.03
2024-05-29_12-42-13.694855,75.09
2024-05-29_12-42-13.727690,73.72
2024-05-29_12-42-13.760389,83.48
2024-05-29_12-42-13.793096,70.65
2024-05-29_12-42-13.821823,61.55
2024-05-29_12-42-13.854707,82.33
2024-05-29_12-42-13.887638,66.28
2024-05-29_12-42-13.920161,70.87
2024-05-29_12-42-13.952951,73.37
2024-05-29_12-42-13.985704,74.50
2024-05-29_12-42-14.018395,73.38
2024-05-29_12-42-14.047124,83.55
2024-05-29_12-42-14.079854,85.73
2024-05-29_12-42-14.112676,76.72
2024-05-29_12-42-14.145363,72.81
2024-05-29_12-42-14.178214,79.75
2024-05-29_12-42-14.210903,76.47
2024-05-29_12-42-14.243692,73.73
2024-05-29_12-42-14.272341,73.52
2024-05-29_12-42-14.305691,73.57
2024-05-29_12-42-14.337904,83.98
2024-05-29_12-42-14.370712,84.52
2024-05-29_12-42-14.403431,78.08
2024-05-29_12-42-14.436312,77.15
2024-05-29_12-42-14.468975,65.53
2024-05-29_12-42-14.501670,71.25
2024-05-29_12-42-14.530411,74.33
2024-05-29_12-42-14.563145,74.04
2024-05-29_12-42-14.595919,73.51
2024-05-29_12-42-14.628687,83.87
2024-05-29_12-42-14.661438,74.31
2024-05-29_12-42-14.694171,76.73
2024-05-29_12-42-14.726911,74.41
2024-05-29_12-42-14.755679,67.99
2024-05-29_12-42-14.788410,76.43
2024-05-29_12-42-14.821148,73.70
2024-05-29_12-42-14.854000,74.55
2024-05-29_12-42-14.886748,73.73
2024-05-29_12-42-14.919571,84.27
2024-05-29_12-42-14.952242,79.16
2024-05-29_12-42-14.980927,64.65
2024-05-29_12-42-15.013744,78.03
2024-05-29_12-42-15.046452,65.28
2024-05-29_12-42-15.079162,71.11
2024-05-29_12-42-15.111966,74.19
2024-05-29_12-42-15.144716,74.72
2024-05-29_12-42-15.177575,74.11
2024-05-29_12-42-15.206146,83.76
2024-05-29_12-42-15.238921,76.64
2024-05-29_12-42-15.271744,69.00
2024-05-29_12-42-15.304432,72.18
2024-05-29_12-42-15.337279,78.96
2024-05-29_12-42-15.369989,61.97
2024-05-29_12-42-15.402803,73.29
2024-05-29_12-42-15.435484,74.56
2024-05-29_12-42-15.464199,74.49
2024-05-29_12-42-15.496967,84.06
2024-05-29_12-42-15.529712,80.77
2024-05-29_12-42-15.562495,65.38
2024-05-29_12-42-15.595650,75.95
2024-05-29_12-42-15.628066,67.19
2024-05-29_12-42-15.660808,71.59
2024-05-29_12-42-15.689404,74.14
2024-05-29_12-42-15.722209,74.63
2024-05-29_12-42-15.754931,73.82
2024-05-29_12-42-15.787811,83.53
2024-05-29_12-42-15.820532,75.92
2024-05-29_12-42-15.853396,74.71
2024-05-29_12-42-15.886048,71.88
2024-05-29_12-42-15.914717,79.47
2024-05-29_12-42-15.947482,76.87
2024-05-29_12-42-15.980263,73.60
2024-05-29_12-42-16.013148,73.86
2024-05-29_12-42-16.045795,73.91
2024-05-29_12-42-16.078559,84.78
2024-05-29_12-42-16.111314,80.26
2024-05-29_12-42-16.144074,62.75
2024-05-29_12-42-16.172752,61.92
2024-05-29_12-42-16.205519,72.05
2024-05-29_12-42-16.238312,72.07
2024-05-29_12-42-16.271031,74.93
2024-05-29_12-42-16.304702,74.24
2024-05-29_12-42-16.336652,73.58
2024-05-29_12-42-16.369322,84.62
2024-05-29_12-42-16.398027,85.86
2024-05-29_12-42-16.430747,78.05
2024-05-29_12-42-16.463537,57.77
2024-05-29_12-42-16.496297,63.10
2024-05-29_12-42-16.529060,76.19
2024-05-29_12-42-16.561810,74.41
2024-05-29_12-42-16.594557,73.88
2024-05-29_12-42-16.623258,73.64
2024-05-29_12-42-16.656102,84.72
2024-05-29_12-42-16.688819,76.17
2024-05-29_12-42-16.721573,67.99
2024-05-29_12-42-16.754295,82.55
2024-05-29_12-42-16.787029,58.39
2024-05-29_12-42-16.819857,71.63
2024-05-29_12-42-16.848528,75.43
2024-05-29_12-42-16.881312,74.04
2024-05-29_12-42-16.914069,72.99
2024-05-29_12-42-16.946803,84.18
2024-05-29_12-42-16.979585,86.52
2024-05-29_12-42-17.012342,75.39
2024-05-29_12-42-17.045083,63.89
2024-05-29_12-42-17.077791,57.36
2024-05-29_12-42-17.106539,74.81
2024-05-29_12-42-17.139333,73.60
2024-05-29_12-42-17.172069,74.43
2024-05-29_12-42-17.205516,73.77
2024-05-29_12-42-17.237595,82.48
2024-05-29_12-42-17.270332,75.54
2024-05-29_12-42-17.303387,73.94
2024-05-29_12-42-17.332031,77.79
2024-05-29_12-42-17.364560,68.46
2024-05-29_12-42-17.397363,72.84
2024-05-29_12-42-17.430221,73.46
2024-05-29_12-42-17.462924,74.22
2024-05-29_12-42-17.495749,73.55
2024-05-29_12-42-17.528341,83.75
2024-05-29_12-42-17.557033,66.00
2024-05-29_12-42-17.589826,76.00
2024-05-29_12-42-17.622526,66.31
2024-05-29_12-42-17.655347,57.14
2024-05-29_12-42-17.688121,75.17
2024-05-29_12-42-17.720923,73.17
2024-05-29_12-42-17.753957,74.08
2024-05-29_12-42-17.786368,73.72
2024-05-29_12-42-17.815380,81.10
2024-05-29_12-42-17.847966,57.07
2024-05-29_12-42-17.880640,74.30
2024-05-29_12-42-17.913379,84.62
2024-05-29_12-42-17.946107,68.60
2024-05-29_12-42-17.978962,73.47
2024-05-29_12-42-18.011636,74.06
2024-05-29_12-42-18.040337,74.18
2024-05-29_12-42-18.073110,73.09
2024-05-29_12-42-18.105973,94.44
2024-05-29_12-42-18.138713,77.64
2024-05-29_12-42-18.171407,75.03
2024-05-29_12-42-18.204203,69.71
2024-05-29_12-42-18.238302,70.64
2024-05-29_12-42-18.265772,74.35
2024-05-29_12-42-18.298521,74.11
2024-05-29_12-42-18.331172,74.68
2024-05-29_12-42-18.363957,73.73
2024-05-29_12-42-18.396681,86.69
2024-05-29_12-42-18.429429,66.93
2024-05-29_12-42-18.462180,70.79
2024-05-29_12-42-18.491042,72.25
2024-05-29_12-42-18.523656,69.04
2024-05-29_12-42-18.556399,73.49
2024-05-29_12-42-18.589176,74.16
2024-05-29_12-42-18.622020,74.85
2024-05-29_12-42-18.654725,73.09
2024-05-29_12-42-18.687480,82.89
2024-05-29_12-42-18.720203,77.35
2024-05-29_12-42-18.748959,74.95
2024-05-29_12-42-18.781724,68.82
2024-05-29_12-42-18.814439,71.19
2024-05-29_12-42-18.847153,74.25
2024-05-29_12-42-18.880015,74.28
2024-05-29_12-42-18.912741,74.32
2024-05-29_12-42-18.945431,73.89
2024-05-29_12-42-18.974143,85.23
2024-05-29_12-42-19.007026,70.91
2024-05-29_12-42-19.039661,70.74
2024-05-29_12-42-19.072432,81.88
2024-05-29_12-42-19.105367,70.10
2024-05-29_12-42-19.138037,73.54
2024-05-29_12-42-19.170946,73.58
2024-05-29_12-42-19.200254,74.62
2024-05-29_12-42-19.232749,74.33
2024-05-29_12-42-19.265525,88.87
2024-05-29_12-42-19.297835,62.09
2024-05-29_12-42-19.330568,61.47
2024-05-29_12-42-19.363266,74.72
2024-05-29_12-42-19.396078,71.81
2024-05-29_12-42-19.428967,74.70
2024-05-29_12-42-19.457525,73.69
2024-05-29_12-42-19.490246,74.11
2024-05-29_12-42-19.523038,74.49
2024-05-29_12-42-19.555782,83.45
2024-05-29_12-42-19.588548,78.36
2024-05-29_12-42-19.621356,54.39
2024-05-29_12-42-19.654048,54.11
2024-05-29_12-42-19.682752,83.21
2024-05-29_12-42-19.715482,74.90
2024-05-29_12-42-19.748294,73.67
2024-05-29_12-42-19.781035,74.29
2024-05-29_12-42-19.813839,79.69
2024-05-29_12-42-19.846596,81.60
2024-05-29_12-42-19.879641,65.36
2024-05-29_12-42-19.908574,60.29
2024-05-29_12-42-19.940877,68.36
2024-05-29_12-42-19.973531,70.54
2024-05-29_12-42-20.006315,75.52
2024-05-29_12-42-20.039093,73.71
2024-05-29_12-42-20.071985,73.49
2024-05-29_12-42-20.104587,73.57
2024-05-29_12-42-20.133258,86.29
2024-05-29_12-42-20.166050,66.83
2024-05-29_12-42-20.198816,71.35
2024-05-29_12-42-20.231533,72.04
2024-05-29_12-42-20.264267,68.35
2024-05-29_12-42-20.297669,73.51
2024-05-29_12-42-20.329881,74.53
2024-05-29_12-42-20.362564,74.44
2024-05-29_12-42-20.391317,72.92
2024-05-29_12-42-20.424043,82.51
2024-05-29_12-42-20.456807,77.43
2024-05-29_12-42-20.489515,74.34
2024-05-29_12-42-20.522353,66.62
2024-05-29_12-42-20.555083,70.90
2024-05-29_12-42-20.587830,74.07
2024-05-29_12-42-20.616540,73.83
2024-05-29_12-42-20.651266,73.91
2024-05-29_12-42-20.690072,73.09
2024-05-29_12-42-20.714885,86.76
2024-05-29_12-42-20.747602,65.72
2024-05-29_12-42-20.780391,71.50
2024-05-29_12-42-20.813152,60.44
2024-05-29_12-42-20.841807,83.81
2024-05-29_12-42-20.874555,73.58
2024-05-29_12-42-20.907317,73.54
2024-05-29_12-42-20.940090,74.49
2024-05-29_12-42-20.972929,73.65
2024-05-29_12-42-21.005628,84.09
2024-05-29_12-42-21.038628,67.09
2024-05-29_12-42-21.067079,59.64
2024-05-29_12-42-21.099835,72.32
2024-05-29_12-42-21.132602,80.03
2024-05-29_12-42-21.165401,74.75
2024-05-29_12-42-21.198578,74.15
2024-05-29_12-42-21.230960,73.74
2024-05-29_12-42-21.263638,74.18
2024-05-29_12-42-21.296528,87.43
2024-05-29_12-42-21.328086,68.40
2024-05-29_12-42-21.357901,73.76
2024-05-29_12-42-21.390652,82.02
2024-05-29_12-42-21.423383,68.31
2024-05-29_12-42-21.456167,73.34
2024-05-29_12-42-21.488877,74.61
2024-05-29_12-42-21.521621,74.42
2024-05-29_12-42-21.550307,73.84
2024-05-29_12-42-21.583107,83.43
2024-05-29_12-42-21.615890,66.53
2024-05-29_12-42-21.648650,76.52
2024-05-29_12-42-21.681377,73.86
2024-05-29_12-42-21.714144,61.41
2024-05-29_12-42-21.746907,74.98
2024-05-29_12-42-21.775681,74.42
2024-05-29_12-42-21.808401,74.05
2024-05-29_12-42-21.841140,74.03
2024-05-29_12-42-21.873865,82.77
2024-05-29_12-42-21.906668,77.39
2024-05-29_12-42-21.939397,74.49
2024-05-29_12-42-21.972265,57.74
2024-05-29_12-42-22.004920,67.80
2024-05-29_12-42-22.033640,73.30
2024-05-29_12-42-22.066387,74.55
2024-05-29_12-42-22.099171,74.59
2024-05-29_12-42-22.131918,73.21
2024-05-29_12-42-22.164671,84.87
2024-05-29_12-42-22.197462,68.15
2024-05-29_12-42-22.230225,74.81
2024-05-29_12-42-22.258834,87.98
2024-05-29_12-42-22.291651,59.67
2024-05-29_12-42-22.324439,74.93
2024-05-29_12-42-22.357209,73.94
2024-05-29_12-42-22.389963,74.43
2024-05-29_12-42-22.422803,73.74
2024-05-29_12-42-22.455424,82.76
2024-05-29_12-42-22.484175,76.59
2024-05-29_12-42-22.518431,74.30
2024-05-29_12-42-22.549974,76.99
2024-05-29_12-42-22.582497,67.90
2024-05-29_12-42-22.615241,72.83
2024-05-29_12-42-22.647979,73.98
2024-05-29_12-42-22.680786,75.12
2024-05-29_12-42-22.709638,73.21
2024-05-29_12-42-22.742198,83.82
2024-05-29_12-42-22.774929,68.18
2024-05-29_12-42-22.807933,74.03
2024-05-29_12-42-22.840517,83.68
2024-05-29_12-42-22.873203,57.49
2024-05-29_12-42-22.906023,74.89
2024-05-29_12-42-22.938741,73.72
2024-05-29_12-42-22.967464,75.00
2024-05-29_12-42-23.000256,73.52
2024-05-29_12-42-23.032970,92.79
2024-05-29_12-42-23.065721,76.78
2024-05-29_12-42-23.098486,73.84
2024-05-29_12-42-23.131364,77.60
2024-05-29_12-42-23.163997,63.87
2024-05-29_12-42-23.192682,72.05
2024-05-29_12-42-23.225430,73.17
2024-05-29_12-42-23.258256,74.12
2024-05-29_12-42-23.291033,73.72
2024-05-29_12-42-23.323941,83.31
2024-05-29_12-42-23.356699,68.77
2024-05-29_12-42-23.389261,75.46
2024-05-29_12-42-23.417969,77.46
2024-05-29_12-42-23.450729,57.08
2024-05-29_12-42-23.483475,76.43
2024-05-29_12-42-23.516278,73.98
2024-05-29_12-42-23.549061,73.56
2024-05-29_12-42-23.581926,73.61
2024-05-29_12-42-23.614583,82.89
2024-05-29_12-42-23.643273,74.88
2024-05-29_12-42-23.676025,73.51
2024-05-29_12-42-23.708847,75.97
2024-05-29_12-42-23.741517,68.78
2024-05-29_12-42-23.774302,72.65
2024-05-29_12-42-23.807065,73.85
2024-05-29_12-42-23.840009,73.60
2024-05-29_12-42-23.872709,73.35
2024-05-29_12-42-23.901319,83.85
2024-05-29_12-42-23.934134,83.49
2024-05-29_12-42-23.966885,75.99
2024-05-29_12-42-23.999627,77.58
