timestamp,EMG
2024-05-28_13-33-26.734545,.73
2024-05-28_13-33-26.734795,"85.13,68.39"
2024-05-28_13-33-26.734968,"86.82,40.27"
2024-05-28_13-33-26.735229,"86.96,59.88"
2024-05-28_13-33-26.735497,"54.53,65.70"
2024-05-28_13-33-26.735677,"46.82,69.36"
2024-05-28_13-33-26.735808,"61.26,76.92"
2024-05-28_13-33-26.736013,"72.75,70.03"
2024-05-28_13-33-26.736147,".55,74.47"
2024-05-28_13-33-26.736276,"97.81,76.61"
2024-05-28_13-33-26.736409,"61.11,79.73"
2024-05-28_13-33-26.736539,"85.13,68.39"
2024-05-28_13-33-26.736662,"86.82,40.27"
2024-05-28_13-33-26.736805,"86.96,59.88"
2024-05-28_13-33-26.736968,"54.53,65.70"
2024-05-28_13-33-26.737120,"46.82,69.36"
2024-05-28_13-33-26.737255,"61.26,76.92"
2024-05-28_13-33-26.737406,"72.75,70.03"
2024-05-28_13-33-28.391262,"78.03,79.90"
2024-05-28_13-33-28.423998,"83.16,69.34"
2024-05-28_13-33-28.456718,"79.43,38.57"
2024-05-28_13-33-28.486945,"70.14,74.16"
2024-05-28_13-33-28.518370,"53.18,66.30"
2024-05-28_13-33-28.551086,"53.08,71.83"
2024-05-28_13-33-28.583950,"59.47,65.71"
2024-05-28_13-33-28.616527,"61.20,78.37"
2024-05-28_13-33-28.649319,"50.34,76.53"
2024-05-28_13-33-28.682009,"71.08,76.49"
2024-05-28_13-33-28.710740,"76.20,74.69"
2024-05-28_13-33-28.743504,"91.15,47.64"
2024-05-28_13-33-28.776327,"65.40,58.75"
2024-05-28_13-33-28.809043,"68.68,59.60"
2024-05-28_13-33-28.841780,"57.85,65.10"
2024-05-28_13-33-28.874555,"46.51,69.25"
2024-05-28_13-33-28.907328,"70.60,76.86"
2024-05-28_13-33-28.936070,"52.05,72.32"
2024-05-28_13-33-28.968748,"69.20,78.89"
2024-05-28_13-33-29.001543,"85.26,68.94"
2024-05-28_13-33-29.034404,"86.42,61.41"
2024-05-28_13-33-29.067129,"91.52,65.69"
2024-05-28_13-33-29.099985,"60.60,44.68"
2024-05-28_13-33-29.132764,"50.89,71.97"
2024-05-28_13-33-29.161329,"60.08,65.34"
2024-05-28_13-33-29.194090,"70.93,76.58"
2024-05-28_13-33-29.226803,"55.57,74.70"
2024-05-28_13-33-29.259623,"53.82,79.05"
2024-05-28_13-33-29.292419,"91.65,70.05"
2024-05-28_13-33-29.325126,"78.45,68.15"
2024-05-28_13-33-29.357793,"93.60,41.04"
2024-05-28_13-33-29.386622,"72.23,40.92"
2024-05-28_13-33-29.419318,"51.90,65.12"
2024-05-28_13-33-29.452137,"45.06,69.69"
2024-05-28_13-33-29.484918,"62.29,75.99"
2024-05-28_13-33-29.517774,"63.52,68.08"
2024-05-28_13-33-29.550438,"65.86,68.29"
2024-05-28_13-33-29.583162,"84.48,85.41"
2024-05-28_13-33-29.615803,"73.87,81.01"
2024-05-28_13-33-29.644630,"80.57,40.91"
2024-05-28_13-33-29.677424,"75.68,43.75"
2024-05-28_13-33-29.710173,"88.16,57.20"
2024-05-28_13-33-29.743021,"54.69,64.91"
2024-05-28_13-33-29.775731,"57.08,75.92"
2024-05-28_13-33-29.808515,"52.58,71.62"
2024-05-28_13-33-29.841116,"66.35,69.77"
2024-05-28_13-33-29.869990,"56.81,79.14"
2024-05-28_13-33-29.902685,"76.82,71.52"
2024-05-28_13-33-29.935599,"67.29,77.82"
2024-05-28_13-33-29.968191,"87.11,42.25"
2024-05-28_13-33-30.001051,"73.11,67.45"
2024-05-28_13-33-30.033734,"61.02,56.14"
2024-05-28_13-33-30.066410,"58.61,75.48"
2024-05-28_13-33-30.095208,"57.34,66.55"
2024-05-28_13-33-30.128043,"66.30,73.30"
2024-05-28_13-33-30.160730,"60.82,70.58"
2024-05-28_13-33-30.193489,"79.06,90.48"
2024-05-28_13-33-30.226351,"82.54,76.32"
2024-05-28_13-33-30.259029,"81.05,64.43"
2024-05-28_13-33-30.291673,"90.98,38.26"
2024-05-28_13-33-30.320443,"64.75,45.57"
2024-05-28_13-33-30.353263,"52.50,76.73"
2024-05-28_13-33-30.386020,"51.77,71.42"
2024-05-28_13-33-30.418896,"58.93,65.76"
2024-05-28_13-33-30.451575,"63.61,74.03"
2024-05-28_13-33-30.488678,"68.91,80.31"
2024-05-28_13-33-30.517580,"79.03,74.52"
2024-05-28_13-33-30.545768,"67.16,73.58"
2024-05-28_13-33-30.578665,"78.23,69.98"
2024-05-28_13-33-30.611350,"65.04,51.27"
2024-05-28_13-33-30.644199,"51.77,75.43"
2024-05-28_13-33-30.676808,"56.18,67.12"
2024-05-28_13-33-30.709558,"54.24,70.83"
2024-05-28_13-33-30.742255,"79.40,69.26"
2024-05-28_13-33-30.771026,"50.34,85.82"
2024-05-28_13-33-30.803821,"86.73,84.45"
2024-05-28_13-33-30.836589,"62.50,69.39"
2024-05-28_13-33-30.869388,"83.43,59.98"
2024-05-28_13-33-30.902099,"87.02,55.93"
2024-05-28_13-33-30.934956,"65.49,50.93"
2024-05-28_13-33-30.967582,"54.47,72.89"
2024-05-28_13-33-30.996314,"56.81,65.03"
2024-05-28_13-33-31.029083,"54.37,71.14"
2024-05-28_13-33-31.061876,"70.28,69.41"
2024-05-28_13-33-31.094655,"51.45,82.44"
2024-05-28_13-33-31.127463,"77.27,78.66"
2024-05-28_13-33-31.160154,"76.91,67.32"
2024-05-28_13-33-31.192848,"91.08,34.83"
2024-05-28_13-33-31.221590,"70.46,45.48"
2024-05-28_13-33-31.254379,"53.62,64.05"
2024-05-28_13-33-31.287176,"52.29,70.75"
2024-05-28_13-33-31.319938,"61.25,65.83"
2024-05-28_13-33-31.352682,"71.36,70.88"
2024-05-28_13-33-31.385554,"53.14,80.71"
2024-05-28_13-33-31.418294,"73.24,74.42"
2024-05-28_13-33-31.446891,"72.91,76.40"
2024-05-28_13-33-31.479647,"86.43,67.40"
2024-05-28_13-33-31.512763,"81.43,38.62"
2024-05-28_13-33-31.545235,"66.89,67.53"
2024-05-28_13-33-31.578018,"59.30,65.86"
2024-05-28_13-33-31.610724,"45.90,73.90"
2024-05-28_13-33-31.643581,"59.79,65.96"
2024-05-28_13-33-31.672225,"59.17,78.66"
2024-05-28_13-33-31.705115,"51.08,76.44"
2024-05-28_13-33-31.737720,"94.49,75.55"
2024-05-28_13-33-31.770533,"77.65,74.65"
2024-05-28_13-33-31.803285,"92.06,47.77"
2024-05-28_13-33-31.837915,"78.85,58.33"
2024-05-28_13-33-31.868781,"69.37,60.07"
2024-05-28_13-33-31.897489,"58.21,65.15"
2024-05-28_13-33-31.930257,"47.39,69.27"
2024-05-28_13-33-31.963115,"71.71,76.88"
2024-05-28_13-33-31.996683,"52.15,72.23"
2024-05-28_13-33-32.028564,"68.97,79.20"
2024-05-28_13-33-32.061340,"84.06,69.64"
2024-05-28_13-33-32.093992,"84.44,61.78"
2024-05-28_13-33-32.122720,"90.54,40.98"
2024-05-28_13-33-32.155538,"58.27,44.00"
2024-05-28_13-33-32.188346,"50.49,72.27"
2024-05-28_13-33-32.221039,"57.40,64.81"
2024-05-28_13-33-32.253832,"57.10,76.23"
2024-05-28_13-33-32.286640,"57.59,74.54"
2024-05-28_13-33-32.319269,"52.48,69.58"
2024-05-28_13-33-32.348035,"85.25,79.85"
2024-05-28_13-33-32.380836,"76.20,70.28"
2024-05-28_13-33-32.413576,"85.71,40.91"
2024-05-28_13-33-32.446320,"77.79,59.00"
2024-05-28_13-33-32.479116,"58.15,46.89"
2024-05-28_13-33-32.511921,"44.16,70.11"
2024-05-28_13-33-32.544564,"60.15,76.13"
2024-05-28_13-33-32.577282,"88.41,70.10"
2024-05-28_13-33-32.606117,"55.09,75.24"
2024-05-28_13-33-32.638974,"57.12,80.85"
2024-05-28_13-33-32.671634,"88.76,77.38"
2024-05-28_13-33-32.704373,"77.96,76.00"
2024-05-28_13-33-32.737196,"84.29,44.11"
2024-05-28_13-33-32.769918,"71.73,37.26"
2024-05-28_13-33-32.802558,"51.78,64.96"
2024-05-28_13-33-32.833283,"56.47,75.82"
2024-05-28_13-33-32.864173,"52.05,71.28"
2024-05-28_13-33-32.897045,"75.48,69.52"
2024-05-28_13-33-32.929654,"54.34,76.59"
2024-05-28_13-33-32.962473,"94.62,69.05"
2024-05-28_13-33-32.995161,"62.11,79.10"
2024-05-28_13-33-33.027814,"83.95,62.10"
2024-05-28_13-33-33.056645,"83.29,45.93"
2024-05-28_13-33-33.089462,"69.66,46.24"
2024-05-28_13-33-33.122227,"56.54,75.59"
2024-05-28_13-33-33.154933,"57.34,66.48"
2024-05-28_13-33-33.187768,"52.84,72.52"
2024-05-28_13-33-33.220493,"66.94,69.69"
2024-05-28_13-33-33.253121,"66.59,82.03"
2024-05-28_13-33-33.281952,"85.40,78.21"
2024-05-28_13-33-33.314701,"71.38,66.14"
2024-05-28_13-33-33.347476,"86.25,38.69"
2024-05-28_13-33-33.380191,"82.29,66.47"
2024-05-28_13-33-33.413013,"52.42,62.73"
2024-05-28_13-33-33.445739,"51.77,71.44"
2024-05-28_13-33-33.478424,"58.86,65.18"
2024-05-28_13-33-33.507207,"69.73,73.07"
2024-05-28_13-33-33.540022,"65.71,85.44"
2024-05-28_13-33-33.572773,"78.43,74.13"
2024-05-28_13-33-33.605548,"75.19,76.83"
2024-05-28_13-33-33.638317,"86.90,48.16"
2024-05-28_13-33-33.671035,"73.50,61.94"
2024-05-28_13-33-33.703817,"68.05,62.46"
2024-05-28_13-33-33.732483,"54.18,66.03"
2024-05-28_13-33-33.766009,"53.55,70.47"
2024-05-28_13-33-33.798062,"73.14,68.77"
2024-05-28_13-33-33.830798,"54.97,72.45"
2024-05-28_13-33-33.863556,"68.41,84.05"
2024-05-28_13-33-33.896317,"77.56,67.44"
2024-05-28_13-33-33.929023,"79.32,60.36"
2024-05-28_13-33-33.957793,"92.50,49.00"
2024-05-28_13-33-33.990561,"61.12,66.35"
2024-05-28_13-33-34.023332,"52.29,73.52"
2024-05-28_13-33-34.056406,"56.38,64.71"
2024-05-28_13-33-34.088959,"53.78,71.90"
2024-05-28_13-33-34.121678,"78.11,68.53"
2024-05-28_13-33-34.154298,"49.94,84.38"
2024-05-28_13-33-34.183183,"93.54,70.60"
2024-05-28_13-33-34.217393,"71.36,68.18"
2024-05-28_13-33-34.248818,"89.03,35.28"
2024-05-28_13-33-34.281367,"81.18,61.01"
2024-05-28_13-33-34.314159,"54.93,64.75"
2024-05-28_13-33-34.346872,"51.44,70.75"
2024-05-28_13-33-34.379634,"62.47,66.04"
2024-05-28_13-33-34.408356,"72.90,70.77"
2024-05-28_13-33-34.441095,"54.06,80.18"
2024-05-28_13-33-34.473880,"72.48,73.79"
2024-05-28_13-33-34.506703,"73.15,75.96"
2024-05-28_13-33-34.539457,"87.59,49.23"
2024-05-28_13-33-34.572179,"51.56,77.95"
2024-05-28_13-33-34.604834,"61.18,66.22"
2024-05-28_13-33-34.633752,"56.18,65.17"
2024-05-28_13-33-34.666869,"52.44,70.24"
2024-05-28_13-33-34.699179,"59.90,65.69"
2024-05-28_13-33-34.731981,"61.00,79.09"
2024-05-28_13-33-34.764760,"51.03,75.94"
2024-05-28_13-33-34.797471,"88.98,76.81"
2024-05-28_13-33-34.831689,"79.06,74.43"
2024-05-28_13-33-34.858942,"94.70,47.05"
2024-05-28_13-33-34.891738,"61.56,61.95"
2024-05-28_13-33-34.924417,"65.73,61.03"
2024-05-28_13-33-34.957238,"60.41,65.15"
2024-05-28_13-33-34.990044,"48.53,69.72"
2024-05-28_13-33-35.022758,"67.85,77.34"
2024-05-28_13-33-35.055519,"49.47,72.46"
2024-05-28_13-33-35.084222,"68.66,76.79"
2024-05-28_13-33-35.117264,"73.02,72.08"
2024-05-28_13-33-35.149764,"90.39,61.17"
2024-05-28_13-33-35.182625,"90.78,59.15"
2024-05-28_13-33-35.215314,"66.50,45.73"
2024-05-28_13-33-35.248049,"51.31,71.09"
2024-05-28_13-33-35.280804,"59.77,64.85"
2024-05-28_13-33-35.313473,"64.15,77.17"
2024-05-28_13-33-35.342284,"51.44,75.06"
2024-05-28_13-33-35.375017,"54.47,73.09"
2024-05-28_13-33-35.407779,"89.52,76.72"
2024-05-28_13-33-35.440577,"82.63,67.71"
2024-05-28_13-33-35.473292,"95.73,39.78"
2024-05-28_13-33-35.506224,"75.79,64.66"
2024-05-28_13-33-35.538746,"52.57,64.71"
2024-05-28_13-33-35.567482,"44.65,70.59"
2024-05-28_13-33-35.600378,"59.01,78.24"
2024-05-28_13-33-35.633092,"64.32,69.49"
2024-05-28_13-33-35.665875,"50.81,75.99"
2024-05-28_13-33-35.698571,"86.98,75.64"
2024-05-28_13-33-35.731304,"76.38,77.61"
2024-05-28_13-33-35.764133,"85.98,40.49"
2024-05-28_13-33-35.792829,"66.46,67.25"
2024-05-28_13-33-35.825552,"64.36,58.31"
2024-05-28_13-33-35.858320,"57.03,64.60"
2024-05-28_13-33-35.891133,"58.08,76.16"
2024-05-28_13-33-35.923858,"64.34,72.39"
2024-05-28_13-33-35.956622,"56.57,70.69"
2024-05-28_13-33-35.989346,"78.47,78.24"
2024-05-28_13-33-36.018149,"81.06,67.14"
2024-05-28_13-33-36.050872,"80.16,61.36"
2024-05-28_13-33-36.083766,"66.54,64.76"
2024-05-28_13-33-36.116498,"65.55,46.32"
2024-05-28_13-33-36.149173,"42.82,70.22"
2024-05-28_13-33-36.181921,"60.09,75.91"
2024-05-28_13-33-36.214610,"71.48,67.51"
2024-05-28_13-33-36.243403,"57.93,73.99"
2024-05-28_13-33-36.276162,"56.96,77.59"
2024-05-28_13-33-36.308916,"89.55,76.31"
2024-05-28_13-33-36.341712,"77.90,60.77"
2024-05-28_13-33-36.374419,"93.78,44.82"
2024-05-28_13-33-36.407211,"73.07,49.73"
2024-05-28_13-33-36.439979,"52.25,65.24"
2024-05-28_13-33-36.468968,"56.28,75.89"
2024-05-28_13-33-36.501515,"54.04,71.71"
2024-05-28_13-33-36.534310,"76.96,67.05"
2024-05-28_13-33-36.566926,"54.67,76.11"
2024-05-28_13-33-36.599775,"83.61,81.75"
2024-05-28_13-33-36.632520,"58.02,75.10"
2024-05-28_13-33-36.665172,"83.37,76.05"
2024-05-28_13-33-36.694040,"84.24,46.59"
2024-05-28_13-33-36.726852,"69.33,58.29"
2024-05-28_13-33-36.759524,"56.23,74.55"
2024-05-28_13-33-36.792278,"57.73,67.36"
2024-05-28_13-33-36.825024,"52.69,71.23"
2024-05-28_13-33-36.857838,"65.06,70.37"
2024-05-28_13-33-36.890464,"52.42,81.71"
2024-05-28_13-33-36.919202,"75.93,78.82"
2024-05-28_13-33-36.952028,"70.05,47.61"
2024-05-28_13-33-36.986297,"87.32,59.96"
2024-05-28_13-33-37.018078,"79.84,45.38"
2024-05-28_13-33-37.050319,"52.93,62.61"
2024-05-28_13-33-37.083086,"52.36,72.05"
2024-05-28_13-33-37.116133,"58.64,65.17"
2024-05-28_13-33-37.144527,"69.50,72.49"
2024-05-28_13-33-37.177306,"60.82,69.73"
2024-05-28_13-33-37.212321,"80.98,93.24"
2024-05-28_13-33-37.242855,"74.88,77.89"
2024-05-28_13-33-37.275605,"79.17,67.02"
2024-05-28_13-33-37.308339,"81.51,34.93"
2024-05-28_13-33-37.341039,"75.26,62.02"
2024-05-28_13-33-37.369733,"52.32,64.38"
2024-05-28_13-33-37.402540,"51.65,70.80"
2024-05-28_13-33-37.435362,"62.44,66.16"
2024-05-28_13-33-37.468029,"64.95,71.38"
2024-05-28_13-33-37.500884,"53.65,80.95"
2024-05-28_13-33-37.533821,"81.40,74.46"
2024-05-28_13-33-37.566293,"74.32,75.28"
2024-05-28_13-33-37.599042,"92.87,48.17"
2024-05-28_13-33-37.627910,"65.64,62.31"
2024-05-28_13-33-37.660597,"50.10,74.60"
2024-05-28_13-33-37.693413,"57.98,65.77"
2024-05-28_13-33-37.726461,"53.49,70.43"
2024-05-28_13-33-37.759313,"71.28,66.86"
2024-05-28_13-33-37.791789,"54.54,80.03"
2024-05-28_13-33-37.824493,"68.80,78.02"
2024-05-28_13-33-37.853187,"80.58,70.51"
2024-05-28_13-33-37.885916,"83.36,58.73"
2024-05-28_13-33-37.918625,"88.33,57.27"
2024-05-28_13-33-37.951465,"59.65,58.07"
2024-05-28_13-33-37.984204,"52.95,72.88"
2024-05-28_13-33-38.016893,"60.53,65.29"
2024-05-28_13-33-38.049648,"64.73,69.87"
2024-05-28_13-33-38.078435,"63.35,78.76"
2024-05-28_13-33-38.111228,"49.13,80.78"
2024-05-28_13-33-38.144003,"84.29,68.08"
2024-05-28_13-33-38.176738,"73.26,69.88"
2024-05-28_13-33-38.209484,"92.44,60.88"
2024-05-28_13-33-38.242184,"76.52,61.87"
2024-05-28_13-33-38.274916,"59.56,47.57"
2024-05-28_13-33-38.303686,"51.59,71.07"
2024-05-28_13-33-38.336546,"60.84,64.95"
2024-05-28_13-33-38.369200,"61.14,77.49"
2024-05-28_13-33-38.402001,"48.72,74.80"
2024-05-28_13-33-38.434847,"77.91,75.94"
2024-05-28_13-33-38.467495,"74.34,75.60"
2024-05-28_13-33-38.500236,"86.34,67.24"
2024-05-28_13-33-38.528988,"76.65,39.36"
2024-05-28_13-33-38.561790,"78.02,78.96"
2024-05-28_13-33-38.594534,"56.95,64.69"
2024-05-28_13-33-38.627275,"45.48,72.08"
2024-05-28_13-33-38.660071,"75.15,78.27"
2024-05-28_13-33-38.692778,"61.24,69.59"
2024-05-28_13-33-38.725445,"51.27,75.64"
2024-05-28_13-33-38.754269,"85.13,75.60"
2024-05-28_13-33-38.787021,"80.65,77.62"
2024-05-28_13-33-38.819848,"87.57,40.62"
2024-05-28_13-33-38.852565,"64.90,60.03"
2024-05-28_13-33-38.885372,"57.76,58.73"
2024-05-28_13-33-38.918053,"57.34,65.06"
2024-05-28_13-33-38.950745,"57.36,76.12"
2024-05-28_13-33-38.979568,"63.19,72.54"
2024-05-28_13-33-39.012340,"54.40,71.38"
2024-05-28_13-33-39.045106,"79.87,76.60"
2024-05-28_13-33-39.077968,"79.29,70.60"
2024-05-28_13-33-39.110654,"81.70,61.28"
2024-05-28_13-33-39.143359,"91.65,62.43"
2024-05-28_13-33-39.176198,"67.95,46.95"
2024-05-28_13-33-39.204823,"42.52,70.41"
2024-05-28_13-33-39.237679,"61.59,75.77"
2024-05-28_13-33-39.270369,"67.72,68.11"
2024-05-28_13-33-39.303123,"52.40,74.39"
2024-05-28_13-33-39.335941,"58.49,73.69"
2024-05-28_13-33-39.368722,"75.60,81.42"
2024-05-28_13-33-39.401331,"79.87,60.65"
2024-05-28_13-33-39.430117,"87.05,44.03"
2024-05-28_13-33-39.462919,"72.49,60.24"
2024-05-28_13-33-39.495717,"52.84,64.83"
2024-05-28_13-33-39.528427,"57.58,75.82"
2024-05-28_13-33-39.581634,"52.92,72.02"
2024-05-28_13-33-39.594108,"70.43,67.56"
2024-05-28_13-33-39.626624,"84.14,77.57"
2024-05-28_13-33-39.655396,"86.48,64.65"
2024-05-28_13-33-39.688185,"64.78,78.02"
2024-05-28_13-33-39.720880,"85.72,41.15"
2024-05-28_13-33-39.753682,"58.07,67.91"
2024-05-28_13-33-39.786510,"59.85,55.96"
2024-05-28_13-33-39.819223,"58.56,75.05"
2024-05-28_13-33-39.852011,"58.31,67.60"
2024-05-28_13-33-39.880719,"63.45,72.02"
2024-05-28_13-33-39.913472,"57.63,71.96"
2024-05-28_13-33-39.946278,"77.94,84.64"
2024-05-28_13-33-39.979060,"77.68,75.43"
2024-05-28_13-33-40.011798,"80.74,45.24"
2024-05-28_13-33-40.044516,"66.24,66.68"
2024-05-28_13-33-40.077209,"66.42,46.48"
2024-05-28_13-33-40.110002,"50.46,76.09"
2024-05-28_13-33-40.138725,"53.45,71.71"
2024-05-28_13-33-40.171665,"72.71,66.24"
2024-05-28_13-33-40.204288,"59.49,73.58"
2024-05-28_13-33-40.237121,"68.74,78.74"
2024-05-28_13-33-40.269762,"78.75,74.94"
2024-05-28_13-33-40.302482,"77.24,61.37"
2024-05-28_13-33-40.335255,"87.62,46.84"
2024-05-28_13-33-40.364049,"65.96,50.40"
2024-05-28_13-33-40.396824,"50.19,76.20"
2024-05-28_13-33-40.429548,"56.57,66.48"
2024-05-28_13-33-40.462370,"53.95,70.90"
2024-05-28_13-33-40.495109,"78.12,67.57"
2024-05-28_13-33-40.527820,"48.81,73.79"
2024-05-28_13-33-40.560472,"86.96,76.47"
2024-05-28_13-33-40.589313,"60.45,68.70"
2024-05-28_13-33-40.622063,"75.77,74.56"
2024-05-28_13-33-40.654832,"62.77,80.74"
2024-05-28_13-33-40.687658,"67.76,67.10"
2024-05-28_13-33-40.720325,"52.00,71.49"
2024-05-28_13-33-40.753169,"58.71,66.13"
2024-05-28_13-33-40.785799,"53.49,71.37"
2024-05-28_13-33-40.814596,"62.31,68.63"
2024-05-28_13-33-40.847464,"78.93,84.87"
2024-05-28_13-33-40.880159,"74.37,77.74"
2024-05-28_13-33-40.912926,"77.71,67.10"
2024-05-28_13-33-40.945667,"85.49,35.22"
2024-05-28_13-33-40.978367,"75.00,61.79"
2024-05-28_13-33-41.011096,"49.23,64.11"
2024-05-28_13-33-41.039940,"54.12,71.54"
2024-05-28_13-33-41.072689,"61.28,66.31"
2024-05-28_13-33-41.105436,"63.47,70.94"
2024-05-28_13-33-41.138214,"51.17,81.04"
2024-05-28_13-33-41.170954,"67.29,75.67"
2024-05-28_13-33-41.203644,"73.53,75.56"
2024-05-28_13-33-41.236475,"92.48,48.98"
2024-05-28_13-33-41.265083,"68.53,65.94"
2024-05-28_13-33-41.297960,"66.83,60.39"
2024-05-28_13-33-41.330684,"57.24,65.15"
2024-05-28_13-33-41.363515,"53.43,70.38"
2024-05-28_13-33-41.396238,"72.05,66.38"
2024-05-28_13-33-41.429021,"53.91,79.72"
2024-05-28_13-33-41.461671,"52.80,77.53"
2024-05-28_13-33-41.490454,"79.81,73.59"
2024-05-28_13-33-41.523224,"81.96,73.72"
2024-05-28_13-33-41.555999,"99.04,47.17"
2024-05-28_13-33-41.588779,"57.68,60.77"
2024-05-28_13-33-41.621478,"50.65,74.20"
2024-05-28_13-33-41.654344,"60.46,68.48"
2024-05-28_13-33-41.687021,"49.73,70.95"
2024-05-28_13-33-41.715667,"63.63,77.36"
2024-05-28_13-33-41.748480,"49.66,80.36"
2024-05-28_13-33-41.781274,"83.81,68.63"
2024-05-28_13-33-41.813995,"71.48,69.64"
2024-05-28_13-33-41.856208,"95.37,61.64"
2024-05-28_13-33-41.879575,"76.87,61.06"
2024-05-28_13-33-41.912358,"57.62,46.48"
2024-05-28_13-33-41.941036,"52.59,71.15"
2024-05-28_13-33-41.973756,"60.45,66.33"
2024-05-28_13-33-42.006519,"62.45,77.16"
2024-05-28_13-33-42.039346,"49.28,73.77"
2024-05-28_13-33-42.072073,"81.67,73.64"
2024-05-28_13-33-42.104833,"73.94,75.93"
2024-05-28_13-33-42.137635,"86.26,67.22"
2024-05-28_13-33-42.166208,"75.20,39.36"
2024-05-28_13-33-42.199074,"77.06,63.82"
2024-05-28_13-33-42.231855,"56.17,65.00"
2024-05-28_13-33-42.264555,"45.71,70.14"
2024-05-28_13-33-42.297469,"61.99,76.57"
2024-05-28_13-33-42.330240,"62.15,69.92"
2024-05-28_13-33-42.362832,"51.46,75.18"
2024-05-28_13-33-42.395508,"92.35,76.61"
2024-05-28_13-33-42.424308,"81.04,77.49"
2024-05-28_13-33-42.457086,"87.63,40.36"
2024-05-28_13-33-42.489913,"64.21,60.72"
2024-05-28_13-33-42.522663,"60.97,58.30"
2024-05-28_13-33-42.555412,"59.14,65.39"
2024-05-28_13-33-42.588235,"57.38,76.41"
2024-05-28_13-33-42.620772,"63.42,73.07"
2024-05-28_13-33-42.649637,"52.29,69.73"
2024-05-28_13-33-42.682412,"87.86,86.11"
2024-05-28_13-33-42.715541,"79.51,76.12"
2024-05-28_13-33-42.747916,"82.74,61.90"
2024-05-28_13-33-42.780727,"78.65,58.47"
2024-05-28_13-33-42.813409,"58.44,47.74"
2024-05-28_13-33-42.846175,"43.75,69.90"
2024-05-28_13-33-42.874856,"60.20,76.21"
2024-05-28_13-33-42.907673,"68.40,68.67"
2024-05-28_13-33-42.940447,"52.40,72.92"
2024-05-28_13-33-42.973229,"57.90,74.72"
2024-05-28_13-33-43.005965,"88.05,82.92"
2024-05-28_13-33-43.038786,"78.63,60.99"
2024-05-28_13-33-43.071534,"94.72,43.16"
2024-05-28_13-33-43.100256,"73.24,38.58"
2024-05-28_13-33-43.132998,"52.29,64.58"
2024-05-28_13-33-43.165810,"55.13,75.44"
2024-05-28_13-33-43.198570,"53.78,72.19"
2024-05-28_13-33-43.231374,"72.11,67.56"
2024-05-28_13-33-43.263969,"55.78,78.12"
2024-05-28_13-33-43.296709,"92.71,67.63"
2024-05-28_13-33-43.325406,"63.13,78.80"
2024-05-28_13-33-43.358250,"84.17,41.30"
2024-05-28_13-33-43.391046,"73.59,69.80"
2024-05-28_13-33-43.423802,"60.00,55.63"
2024-05-28_13-33-43.456554,"58.06,75.11"
2024-05-28_13-33-43.489314,"58.53,67.22"
2024-05-28_13-33-43.521977,"65.50,71.80"
2024-05-28_13-33-43.550777,"59.12,69.70"
2024-05-28_13-33-43.583539,"78.26,82.37"
2024-05-28_13-33-43.616247,"78.59,76.09"
2024-05-28_13-33-43.649072,"77.02,45.40"
2024-05-28_13-33-43.681848,"87.89,59.04"
2024-05-28_13-33-43.714525,"49.07,67.28"
2024-05-28_13-33-43.747250,"54.54,75.34"
2024-05-28_13-33-43.776034,"52.70,71.36"
2024-05-28_13-33-43.808797,"58.56,66.77"
2024-05-28_13-33-43.841917,"63.12,72.32"
2024-05-28_13-33-43.874333,"51.46,70.46"
2024-05-28_13-33-43.907106,"83.31,73.79"
2024-05-28_13-33-43.939872,"76.67,76.03"
2024-05-28_13-33-43.972564,"92.87,47.41"
2024-05-28_13-33-44.001315,"69.67,55.88"
2024-05-28_13-33-44.034384,"63.18,62.00"
2024-05-28_13-33-44.066813,"55.28,66.11"
2024-05-28_13-33-44.099727,"56.32,71.45"
2024-05-28_13-33-44.132461,"67.61,67.44"
2024-05-28_13-33-44.165171,"50.59,73.24"
2024-05-28_13-33-44.197838,"88.59,85.06"
2024-05-28_13-33-44.226639,"62.62,69.22"
2024-05-28_13-33-44.259373,"81.14,60.22"
2024-05-28_13-33-44.292158,"87.61,61.03"
2024-05-28_13-33-44.325712,"64.75,49.50"
2024-05-28_13-33-44.357686,"51.51,72.04"
2024-05-28_13-33-44.390466,"61.53,65.84"
2024-05-28_13-33-44.423092,"53.33,71.16"
2024-05-28_13-33-44.451881,"68.49,68.11"
2024-05-28_13-33-44.484792,"52.14,83.15"
2024-05-28_13-33-44.517411,"77.73,78.34"
2024-05-28_13-33-44.550187,"72.75,66.95"
2024-05-28_13-33-44.582973,"80.88,35.57"
2024-05-28_13-33-44.616583,"83.78,64.67"
2024-05-28_13-33-44.648432,"50.90,63.13"
2024-05-28_13-33-44.677115,"52.44,70.90"
2024-05-28_13-33-44.709986,"61.31,68.98"
2024-05-28_13-33-44.742734,"85.75,73.51"
2024-05-28_13-33-44.775404,"50.34,79.51"
2024-05-28_13-33-44.808213,"83.07,72.09"
2024-05-28_13-33-44.841037,"74.11,75.55"
2024-05-28_13-33-44.873650,"87.33,48.82"
2024-05-28_13-33-44.902447,"70.53,39.93"
2024-05-28_13-33-44.935484,"79.87,70.35"
2024-05-28_13-33-44.967959,"51.53,64.18"
2024-05-28_13-33-45.000779,"53.52,70.94"
2024-05-28_13-33-45.033539,"60.95,67.32"
2024-05-28_13-33-45.066747,"59.39,78.69"
2024-05-28_13-33-45.098941,"51.24,73.67"
2024-05-28_13-33-45.131721,"88.66,76.85"
2024-05-28_13-33-45.160504,"76.43,74.01"
2024-05-28_13-33-45.193288,"96.56,48.30"
2024-05-28_13-33-45.226128,"63.22,58.72"
2024-05-28_13-33-45.258857,"58.14,59.63"
2024-05-28_13-33-45.291573,"59.41,65.39"
2024-05-28_13-33-45.324314,"47.08,70.85"
2024-05-28_13-33-45.356960,"67.63,77.22"
2024-05-28_13-33-45.385801,"52.67,70.96"
2024-05-28_13-33-45.418940,"52.79,76.96"
2024-05-28_13-33-45.451400,"84.52,70.82"
2024-05-28_13-33-45.484185,"90.36,62.04"
2024-05-28_13-33-45.517049,"91.82,61.02"
2024-05-28_13-33-45.549539,"64.77,44.92"
2024-05-28_13-33-45.582413,"52.37,71.28"
2024-05-28_13-33-45.611055,"60.69,66.39"
2024-05-28_13-33-45.643876,"69.11,77.02"
2024-05-28_13-33-45.676630,"54.94,73.62"
2024-05-28_13-33-45.709385,"53.93,73.06"
2024-05-28_13-33-45.742127,"86.42,76.31"
2024-05-28_13-33-45.774839,"79.92,70.15"
2024-05-28_13-33-45.807518,"85.18,62.14"
2024-05-28_13-33-45.836420,"71.82,65.27"
2024-05-28_13-33-45.869119,"52.52,65.55"
2024-05-28_13-33-45.901926,"45.21,69.26"
2024-05-28_13-33-45.934721,"60.16,76.96"
2024-05-28_13-33-45.967381,"72.70,69.72"
2024-05-28_13-33-46.000215,"50.54,73.86"
2024-05-28_13-33-46.032853,"75.41,77.08"
2024-05-28_13-33-46.061612,"73.53,77.45"
2024-05-28_13-33-46.094458,"83.85,41.19"
2024-05-28_13-33-46.127182,"80.16,41.68"
2024-05-28_13-33-46.160022,"63.94,59.18"
2024-05-28_13-33-46.192718,"57.32,64.58"
2024-05-28_13-33-46.225425,"56.44,76.10"
2024-05-28_13-33-46.258075,"52.23,72.79"
2024-05-28_13-33-46.286897,"58.54,68.77"
2024-05-28_13-33-46.319653,"60.05,84.33"
2024-05-28_13-33-46.352591,"91.61,64.41"
2024-05-28_13-33-46.385298,"74.43,77.35"
2024-05-28_13-33-46.417928,"88.85,41.15"
2024-05-28_13-33-46.450705,"66.67,53.97"
2024-05-28_13-33-46.483496,"56.64,56.50"
2024-05-28_13-33-46.512241,"60.13,75.34"
2024-05-28_13-33-46.544965,"57.65,67.51"
2024-05-28_13-33-46.577883,"63.91,72.04"
2024-05-28_13-33-46.610507,"57.41,70.31"
2024-05-28_13-33-46.643260,"89.29,86.41"
2024-05-28_13-33-46.676002,"76.58,76.02"
2024-05-28_13-33-46.708715,"83.78,44.46"
2024-05-28_13-33-46.737523,"79.10,57.69"
2024-05-28_13-33-46.770221,"52.86,65.99"
2024-05-28_13-33-46.803025,"54.30,78.94"
2024-05-28_13-33-46.835784,"53.46,73.30"
2024-05-28_13-33-46.868536,"69.84,67.03"
2024-05-28_13-33-46.901309,"59.16,72.69"
2024-05-28_13-33-46.934027,"68.73,77.49"
2024-05-28_13-33-46.962789,"81.87,73.59"
2024-05-28_13-33-46.995601,"76.80,61.49"
2024-05-28_13-33-47.028326,"96.05,46.97"
2024-05-28_13-33-47.061146,"67.00,45.97"
2024-05-28_13-33-47.093870,"67.38,76.23"
2024-05-28_13-33-47.126657,"55.29,65.90"
2024-05-28_13-33-47.159229,"55.58,71.26"
2024-05-28_13-33-47.188049,"66.12,67.86"
2024-05-28_13-33-47.220806,"49.12,86.45"
2024-05-28_13-33-47.253663,"84.82,73.44"
2024-05-28_13-33-47.286418,"61.05,68.48"
2024-05-28_13-33-47.319113,"81.64,59.93"
2024-05-28_13-33-47.351931,"87.50,59.51"
2024-05-28_13-33-47.384741,"66.96,50.01"
2024-05-28_13-33-47.413324,"51.61,71.92"
2024-05-28_13-33-47.446117,"59.64,66.06"
2024-05-28_13-33-47.478877,"54.21,71.13"
2024-05-28_13-33-47.511655,"65.53,68.44"
2024-05-28_13-33-47.544423,"82.57,83.98"
2024-05-28_13-33-47.577169,"74.90,77.83"
2024-05-28_13-33-47.609816,"76.45,66.97"
2024-05-28_13-33-47.642550,"83.64,35.36"
2024-05-28_13-33-47.671346,"76.51,63.89"
2024-05-28_13-33-47.704150,"50.88,63.56"
2024-05-28_13-33-47.736962,"52.99,71.04"
2024-05-28_13-33-47.769736,"62.26,67.25"
2024-05-28_13-33-47.802486,"74.66,76.71"
2024-05-28_13-33-47.835194,"51.76,79.43"
2024-05-28_13-33-47.868209,"85.85,77.40"
2024-05-28_13-33-47.896685,"75.38,75.74"
2024-05-28_13-33-47.929461,"94.68,48.10"
2024-05-28_13-33-47.962200,"64.95,59.01"
2024-05-28_13-33-47.994984,"60.51,60.32"
2024-05-28_13-33-48.027784,"55.86,64.53"
2024-05-28_13-33-48.060548,"56.77,71.60"
2024-05-28_13-33-48.093151,"65.67,67.76"
2024-05-28_13-33-48.121954,"48.70,79.33"
2024-05-28_13-33-48.154692,"89.25,79.40"
2024-05-28_13-33-48.187504,"67.88,69.99"
2024-05-28_13-33-48.220435,"85.72,58.21"
2024-05-28_13-33-48.253043,"78.59,62.88"
2024-05-28_13-33-48.285804,"65.80,49.65"
2024-05-28_13-33-48.318633,"51.69,71.15"
2024-05-28_13-33-48.347238,"62.38,66.06"
2024-05-28_13-33-48.380069,"60.95,71.68"
2024-05-28_13-33-48.412746,"53.49,78.41"
2024-05-28_13-33-48.445585,"69.40,74.09"
2024-05-28_13-33-48.478480,"76.77,77.23"
2024-05-28_13-33-48.510994,"79.13,67.09"
2024-05-28_13-33-48.543773,"78.68,39.99"
2024-05-28_13-33-48.572532,"75.92,59.14"
2024-05-28_13-33-48.605364,"48.68,63.56"
2024-05-28_13-33-48.638116,"52.97,70.41"
2024-05-28_13-33-48.671166,"60.90,67.30"
2024-05-28_13-33-48.703562,"65.75,78.37"
2024-05-28_13-33-48.738069,"50.65,75.00"
2024-05-28_13-33-48.769070,"83.88,75.15"
2024-05-28_13-33-48.797783,"71.37,72.03"
2024-05-28_13-33-48.830609,"74.86,69.12"
2024-05-28_13-33-48.863725,"64.32,64.57"
2024-05-28_13-33-48.896109,"70.25,60.31"
2024-05-28_13-33-48.928863,"57.40,64.99"
2024-05-28_13-33-48.961653,"48.39,69.52"
2024-05-28_13-33-48.994309,"73.52,78.09"
2024-05-28_13-33-49.023097,"57.73,71.24"
2024-05-28_13-33-49.055843,"69.25,80.24"
2024-05-28_13-33-49.088642,"85.26,66.18"
2024-05-28_13-33-49.121485,"83.41,61.73"
2024-05-28_13-33-49.154183,"91.42,40.85"
2024-05-28_13-33-49.187014,"58.84,61.11"
2024-05-28_13-33-49.219603,"67.44,73.53"
2024-05-28_13-33-49.248409,"59.58,64.93"
2024-05-28_13-33-49.281296,"56.16,77.68"
2024-05-28_13-33-49.313988,"60.85,73.63"
2024-05-28_13-33-49.346688,"52.22,80.20"
2024-05-28_13-33-49.379453,"83.12,67.73"
2024-05-28_13-33-49.412228,"77.17,69.42"
2024-05-28_13-33-49.444906,"90.03,41.48"
2024-05-28_13-33-49.473641,"74.79,49.87"
2024-05-28_13-33-49.506481,"65.84,66.48"
2024-05-28_13-33-49.539204,"45.69,69.69"
2024-05-28_13-33-49.572030,"60.64,76.81"
2024-05-28_13-33-49.604733,"64.76,69.18"
2024-05-28_13-33-49.637636,"49.22,73.29"
2024-05-28_13-33-49.670233,"83.31,73.18"
2024-05-28_13-33-49.702877,"75.15,80.76"
2024-05-28_13-33-49.731716,"80.91,41.67"
2024-05-28_13-33-49.764459,"76.45,42.31"
2024-05-28_13-33-49.797274,"77.81,79.45"
2024-05-28_13-33-49.830014,"56.14,67.38"
2024-05-28_13-33-49.862853,"55.57,77.05"
2024-05-28_13-33-49.895466,"51.77,73.68"
2024-05-28_13-33-49.928226,"63.84,69.37"
2024-05-28_13-33-49.957028,"59.77,83.98"
2024-05-28_13-33-49.989771,"93.69,65.18"
2024-05-28_13-33-50.022503,"73.30,62.83"
2024-05-28_13-33-50.055281,"87.51,41.66"
2024-05-28_13-33-50.088057,"85.19,62.76"
2024-05-28_13-33-50.120819,"62.01,56.75"
2024-05-28_13-33-50.153493,"57.38,74.74"
2024-05-28_13-33-50.182320,"57.19,67.85"
2024-05-28_13-33-50.215004,"68.13,72.87"
2024-05-28_13-33-50.247831,"60.82,69.74"
2024-05-28_13-33-50.280585,"64.96,79.78"
2024-05-28_13-33-50.313342,"79.14,77.37"
2024-05-28_13-33-50.346062,"76.39,64.60"
2024-05-28_13-33-50.378765,"89.59,38.24"
2024-05-28_13-33-50.407532,"65.52,56.59"
2024-05-28_13-33-50.440335,"50.14,77.03"
2024-05-28_13-33-50.473127,"51.87,71.86"
2024-05-28_13-33-50.505861,"59.58,66.77"
2024-05-28_13-33-50.538611,"61.82,72.40"
2024-05-28_13-33-50.571359,"52.03,70.04"
2024-05-28_13-33-50.604040,"86.22,86.27"
2024-05-28_13-33-50.632856,"75.39,75.90"
2024-05-28_13-33-50.666396,"92.65,46.94"
2024-05-28_13-33-50.698394,"71.69,54.42"
2024-05-28_13-33-50.731133,"71.73,62.00"
2024-05-28_13-33-50.763888,"53.41,65.27"
2024-05-28_13-33-50.796677,"52.86,71.45"
2024-05-28_13-33-50.829317,"72.48,68.11"
2024-05-28_13-33-50.858179,"67.29,63.56"
2024-05-28_13-33-50.890916,"66.76,83.83"
2024-05-28_13-33-50.923609,"77.58,70.24"
2024-05-28_13-33-50.957802,"78.91,59.98"
2024-05-28_13-33-50.989186,"83.67,51.97"
2024-05-28_13-33-51.021886,"79.36,57.81"
2024-05-28_13-33-51.054743,"51.32,72.43"
2024-05-28_13-33-51.083466,"57.47,65.34"
2024-05-28_13-33-51.116934,"56.37,71.99"
2024-05-28_13-33-51.149110,"68.19,68.00"
2024-05-28_13-33-51.181756,"51.80,82.85"
2024-05-28_13-33-51.214457,"77.85,80.69"
2024-05-28_13-33-51.247141,"72.78,67.30"
2024-05-28_13-33-51.279884,"90.19,35.54"
2024-05-28_13-33-51.308668,"80.79,61.33"
2024-05-28_13-33-51.341507,"52.82,63.61"
2024-05-28_13-33-51.374224,"51.89,70.95"
2024-05-28_13-33-51.406981,"64.26,66.81"
2024-05-28_13-33-51.439771,"69.21,71.65"
2024-05-28_13-33-51.472488,"52.19,79.54"
2024-05-28_13-33-51.505190,"84.37,76.76"
2024-05-28_13-33-51.534255,"73.35,76.05"
2024-05-28_13-33-51.566871,"83.79,49.13"
2024-05-28_13-33-51.599514,"80.68,39.90"
2024-05-28_13-33-51.632307,"80.82,68.41"
2024-05-28_13-33-51.665031,"50.76,63.39"
2024-05-28_13-33-51.697795,"53.27,70.76"
2024-05-28_13-33-51.730538,"61.14,67.66"
2024-05-28_13-33-51.759242,"58.81,78.33"
2024-05-28_13-33-51.792028,"50.99,74.14"
2024-05-28_13-33-51.824873,"85.56,63.64"
2024-05-28_13-33-51.857548,"78.12,74.10"
2024-05-28_13-33-51.890438,"64.59,79.12"
2024-05-28_13-33-51.923060,"58.51,66.36"
2024-05-28_13-33-51.955787,"58.71,74.31"
2024-05-28_13-33-51.984559,"59.22,65.49"
2024-05-28_13-33-52.017546,"48.18,69.63"
2024-05-28_13-33-52.050077,"66.68,79.02"
2024-05-28_13-33-52.082825,"51.92,70.62"
2024-05-28_13-33-52.116427,"92.43,77.69"
2024-05-28_13-33-52.148565,"71.18,70.55"
2024-05-28_13-33-52.181052,"90.43,61.13"
2024-05-28_13-33-52.209806,"79.72,60.01"
2024-05-28_13-33-52.242561,"50.00,44.98"
2024-05-28_13-33-52.275312,"49.68,71.05"
2024-05-28_13-33-52.308112,"60.78,65.30"
2024-05-28_13-33-52.340903,"66.34,78.51"
2024-05-28_13-33-52.373628,"52.36,74.36"
2024-05-28_13-33-52.406317,"80.00,73.47"
2024-05-28_13-33-52.439129,"75.01,76.75"
2024-05-28_13-33-52.467801,"82.19,66.79"
2024-05-28_13-33-52.500654,"86.28,40.64"
2024-05-28_13-33-52.533413,"74.11,63.37"
2024-05-28_13-33-52.566102,"51.98,65.16"
2024-05-28_13-33-52.598906,"46.19,69.33"
2024-05-28_13-33-52.631684,"62.06,77.17"
2024-05-28_13-33-52.664340,"75.40,69.38"
2024-05-28_13-33-52.693161,"49.40,73.72"
2024-05-28_13-33-52.725849,"89.71,70.97"
2024-05-28_13-33-52.758684,"73.01,79.23"
2024-05-28_13-33-52.791466,"81.95,41.44"
2024-05-28_13-33-52.824217,"77.14,42.37"
2024-05-28_13-33-52.856916,"76.09,48.28"
2024-05-28_13-33-52.889610,"55.87,66.57"
2024-05-28_13-33-52.918389,"56.29,76.85"
2024-05-28_13-33-52.951230,"53.06,73.70"
2024-05-28_13-33-52.983980,"64.32,69.24"
2024-05-28_13-33-53.016805,"58.83,83.14"
2024-05-28_13-33-53.049498,"94.54,65.03"
2024-05-28_13-33-53.082241,"72.48,77.85"
2024-05-28_13-33-53.115180,"87.66,41.82"
2024-05-28_13-33-53.143733,"69.72,63.55"
2024-05-28_13-33-53.176463,"68.11,56.94"
2024-05-28_13-33-53.209237,"59.46,74.75"
2024-05-28_13-33-53.242044,"56.13,68.29"
2024-05-28_13-33-53.274723,"64.27,73.06"
2024-05-28_13-33-53.307509,"56.55,69.25"
2024-05-28_13-33-53.340223,"84.42,85.56"
2024-05-28_13-33-53.371754,"78.12,60.92"
2024-05-28_13-33-53.401744,"84.78,44.95"
2024-05-28_13-33-53.434552,"91.35,58.93"
2024-05-28_13-33-53.467261,"68.49,47.57"
2024-05-28_13-33-53.500049,"52.90,75.82"
2024-05-28_13-33-53.532898,"52.72,71.96"
2024-05-28_13-33-53.566145,"71.79,67.09"
2024-05-28_13-33-53.594301,"60.07,73.01"
2024-05-28_13-33-53.627173,"68.76,73.50"
2024-05-28_13-33-53.659750,"76.68,79.50"
2024-05-28_13-33-53.692577,"77.02,61.40"
2024-05-28_13-33-53.725326,"97.61,46.26"
2024-05-28_13-33-53.758076,"64.97,33.18"
2024-05-28_13-33-53.790839,"54.02,75.58"
2024-05-28_13-33-53.819763,"55.26,65.79"
2024-05-28_13-33-53.852375,"53.99,72.16"
2024-05-28_13-33-53.885330,"67.49,70.51"
2024-05-28_13-33-53.917874,"88.05,96.54"
2024-05-28_13-33-53.950642,"67.38,81.06"
2024-05-28_13-33-53.983438,"77.41,49.53"
2024-05-28_13-33-54.016212,"90.25,38.36"
2024-05-28_13-33-54.044859,"68.97,52.54"
2024-05-28_13-33-54.077634,"64.11,63.60"
2024-05-28_13-33-54.110341,"54.96,71.16"
2024-05-28_13-33-54.143157,"60.79,67.93"
2024-05-28_13-33-54.175931,"60.29,75.11"
2024-05-28_13-33-54.208652,"88.71,71.35"
2024-05-28_13-33-54.241389,"76.09,76.00"
2024-05-28_13-33-54.270087,"72.55,62.41"
2024-05-28_13-33-54.302912,"89.32,47.69"
2024-05-28_13-33-54.335682,"73.01,55.49"
2024-05-28_13-33-54.368389,"72.41,61.91"
2024-05-28_13-33-54.401221,"54.77,64.92"
2024-05-28_13-33-54.433974,"56.03,70.82"
2024-05-28_13-33-54.466663,"68.94,67.77"
2024-05-28_13-33-54.495440,"69.35,73.95"
2024-05-28_13-33-54.528230,"81.05,84.18"
2024-05-28_13-33-54.560975,"76.10,74.75"
2024-05-28_13-33-54.593741,"75.82,39.75"
2024-05-28_13-33-54.626454,"93.88,51.21"
2024-05-28_13-33-54.659236,"63.46,60.61"
2024-05-28_13-33-54.691956,"54.22,72.12"
2024-05-28_13-33-54.724603,"55.97,65.18"
2024-05-28_13-33-54.753457,"59.34,73.29"
2024-05-28_13-33-54.786395,"99.31,73.13"
2024-05-28_13-33-54.818958,"69.35,84.38"
2024-05-28_13-33-54.851789,"87.65,81.87"
2024-05-28_13-33-54.884608,"67.87,52.50"
2024-05-28_13-33-54.917659,"67.87,72.14"
2024-05-28_13-33-54.945964,"63.15,63.78"
2024-05-28_13-33-54.978764,"70.97,68.64"
2024-05-28_13-33-55.011515,"53.87,71.43"
2024-05-28_13-33-55.044272,"65.35,65.84"
2024-05-28_13-33-55.077021,"53.43,73.08"
2024-05-28_13-33-55.109839,"81.19,83.45"
2024-05-28_13-33-55.142516,"66.35,76.14"
2024-05-28_13-33-55.175231,"72.61,66.76"
2024-05-28_13-33-55.204029,"79.45,49.86"
2024-05-28_13-33-55.236860,"77.36,39.50"
2024-05-28_13-33-55.269529,"75.65,81.47"
2024-05-28_13-33-55.302375,"47.17,63.62"
2024-05-28_13-33-55.335201,"54.86,70.28"
2024-05-28_13-33-55.367889,"66.08,66.39"
2024-05-28_13-33-55.400496,"72.33,80.01"
2024-05-28_13-33-55.429351,"75.47,77.00"
2024-05-28_13-33-55.463344,"84.04,81.16"
2024-05-28_13-33-55.494897,"70.88,60.35"
2024-05-28_13-33-55.527579,"86.70,48.39"
2024-05-28_13-33-55.560382,"66.83,39.59"
2024-05-28_13-33-55.593063,"78.37,60.50"
2024-05-28_13-33-55.625704,"56.11,64.65"
2024-05-28_13-33-55.654571,"49.18,69.50"
2024-05-28_13-33-55.687402,"65.69,79.32"
2024-05-28_13-33-55.721599,"78.48,70.42"
2024-05-28_13-33-55.753018,"81.99,76.38"
2024-05-28_13-33-55.785647,"84.91,79.09"
2024-05-28_13-33-55.818970,"72.49,45.29"
2024-05-28_13-33-55.851081,"86.72,41.38"
2024-05-28_13-33-55.879909,"51.12,73.39"
2024-05-28_13-33-55.912642,"87.26,62.92"
2024-05-28_13-33-55.945431,"54.26,67.79"
2024-05-28_13-33-55.978162,"57.22,78.06"
2024-05-28_13-33-56.010960,"55.74,73.99"
2024-05-28_13-33-56.043654,"63.95,67.90"
2024-05-28_13-33-56.076328,"54.39,74.70"
2024-05-28_13-33-56.105177,"98.74,74.74"
2024-05-28_13-33-56.137930,"60.96,81.34"
2024-05-28_13-33-56.170846,"81.31,61.50"
2024-05-28_13-33-56.203424,"81.12,45.74"
2024-05-28_13-33-56.236281,"66.50,61.95"
2024-05-28_13-33-56.268987,"53.20,74.81"
2024-05-28_13-33-56.301625,"55.77,66.83"
2024-05-28_13-33-56.330432,"54.25,71.65"
2024-05-28_13-33-56.363405,"72.06,68.25"
2024-05-28_13-33-56.396008,"51.67,84.52"
2024-05-28_13-33-56.428749,"94.56,72.71"
2024-05-28_13-33-56.461466,"66.77,67.10"
2024-05-28_13-33-56.494198,"85.89,59.41"
2024-05-28_13-33-56.526932,"67.82,45.45"
2024-05-28_13-33-56.555675,"52.76,61.74"
2024-05-28_13-33-56.588476,"51.18,71.35"
2024-05-28_13-33-56.621252,"60.14,66.04"
2024-05-28_13-33-56.654042,"69.77,71.78"
2024-05-28_13-33-56.686895,"59.97,69.63"
2024-05-28_13-33-56.719617,"76.86,84.87"
2024-05-28_13-33-56.752198,"74.71,77.57"
2024-05-28_13-33-56.780966,"79.48,66.06"
2024-05-28_13-33-56.813774,"84.29,34.79"
2024-05-28_13-33-56.846542,"88.43,62.23"
2024-05-28_13-33-56.879306,"51.07,63.62"
2024-05-28_13-33-56.912126,"52.14,70.74"
2024-05-28_13-33-56.944835,"61.23,68.38"
2024-05-28_13-33-56.977473,"85.44,73.64"
2024-05-28_13-33-57.006273,"51.53,80.93"
2024-05-28_13-33-57.039127,"83.42,75.69"
2024-05-28_13-33-57.071798,"73.35,75.49"
2024-05-28_13-33-57.104559,"92.50,66.16"
2024-05-28_13-33-57.137345,"54.22,38.54"
2024-05-28_13-33-57.170107,"65.24,60.63"
2024-05-28_13-33-57.202966,"53.29,64.31"
2024-05-28_13-33-57.233945,"54.95,71.13"
2024-05-28_13-33-57.272186,"60.49,65.77"
2024-05-28_13-33-57.302370,"58.08,78.70"
2024-05-28_13-33-57.331081,"52.34,74.43"
2024-05-28_13-33-57.362809,"82.89,75.34"
2024-05-28_13-33-57.395932,"78.77,73.80"
2024-05-28_13-33-57.428183,"96.62,65.91"
2024-05-28_13-33-57.456852,"64.77,58.08"
2024-05-28_13-33-57.489714,"57.92,59.87"
2024-05-28_13-33-57.522409,"61.01,66.03"
2024-05-28_13-33-57.555179,"48.29,69.22"
2024-05-28_13-33-57.587983,"65.54,77.33"
2024-05-28_13-33-57.620628,"50.24,72.40"
2024-05-28_13-33-57.653343,"93.45,76.48"
2024-05-28_13-33-57.682142,"87.74,67.36"
2024-05-28_13-33-57.714902,"95.60,61.63"
2024-05-28_13-33-57.747669,"80.12,59.69"
2024-05-28_13-33-57.780448,"66.04,44.75"
2024-05-28_13-33-57.813202,"52.22,71.27"
2024-05-28_13-33-57.845991,"62.75,65.67"
2024-05-28_13-33-57.878690,"65.88,76.25"
2024-05-28_13-33-57.907384,"54.22,73.70"
2024-05-28_13-33-57.940222,"75.48,81.35"
2024-05-28_13-33-57.972926,"81.81,76.79"
2024-05-28_13-33-58.005807,"80.87,69.41"
2024-05-28_13-33-58.038512,"97.62,61.06"
2024-05-28_13-33-58.071366,"74.35,53.58"
2024-05-28_13-33-58.116636,"64.15,66.32"
2024-05-28_13-33-58.142331,"47.76,69.79"
2024-05-28_13-33-58.169172,"59.90,75.70"
2024-05-28_13-33-58.198604,"62.38,68.36"
2024-05-28_13-33-58.230993,"50.49,73.02"
2024-05-28_13-33-58.263869,"74.32,74.58"
2024-05-28_13-33-58.297460,"75.94,80.46"
2024-05-28_13-33-58.329439,"84.07,61.87"
2024-05-28_13-33-58.362093,"76.22,42.26"
2024-05-28_13-33-58.390788,"87.66,58.55"
2024-05-28_13-33-58.423664,"55.88,64.37"
2024-05-28_13-33-58.456288,"55.11,76.17"
2024-05-28_13-33-58.489068,"50.54,71.43"
2024-05-28_13-33-58.521823,"62.81,68.51"
2024-05-28_13-33-58.554559,"57.39,81.47"
2024-05-28_13-33-58.587299,"89.28,67.32"
2024-05-28_13-33-58.616038,"72.72,76.98"
2024-05-28_13-33-58.648804,"87.01,41.08"
2024-05-28_13-33-58.681573,"72.43,62.95"
2024-05-28_13-33-58.714306,"64.65,55.82"
2024-05-28_13-33-58.747142,"58.50,75.29"
2024-05-28_13-33-58.779846,"57.75,67.09"
2024-05-28_13-33-58.812540,"64.46,72.16"
2024-05-28_13-33-58.841343,"57.39,69.85"
2024-05-28_13-33-58.874148,"79.26,80.28"
2024-05-28_13-33-58.906846,"79.57,76.70"
2024-05-28_13-33-58.939661,"70.72,65.22"
2024-05-28_13-33-58.972349,"64.00,61.12"
2024-05-28_13-33-59.005107,"63.82,55.02"
2024-05-28_13-33-59.037879,"66.65,76.82"
2024-05-28_13-33-59.067198,"51.85,71.30"
2024-05-28_13-33-59.099334,"57.88,66.63"
2024-05-28_13-33-59.132310,"63.55,72.14"
2024-05-28_13-33-59.164951,"51.94,70.57"
2024-05-28_13-33-59.197671,"89.19,85.07"
2024-05-28_13-33-59.230405,"77.39,75.91"
2024-05-28_13-33-59.263073,"94.98,46.49"
2024-05-28_13-33-59.291944,"69.36,57.44"
2024-05-28_13-33-59.324634,"62.21,61.54"
2024-05-28_13-33-59.357403,"54.35,65.71"
2024-05-28_13-33-59.390259,"54.63,71.21"
2024-05-28_13-33-59.422951,"69.40,67.53"
2024-05-28_13-33-59.455668,"49.02,73.27"
2024-05-28_13-33-59.488510,"69.51,85.14"
2024-05-28_13-33-59.517320,"77.84,65.76"
2024-05-28_13-33-59.549933,"79.74,59.59"
2024-05-28_13-33-59.582691,"84.36,47.33"
2024-05-28_13-33-59.615489,"59.81,40.22"
2024-05-28_13-33-59.648265,"51.90,72.81"
2024-05-28_13-33-59.680959,"58.17,65.47"
2024-05-28_13-33-59.713629,"55.07,70.44"
2024-05-28_13-33-59.742461,"64.14,68.30"
2024-05-28_13-33-59.775232,"49.17,79.89"
2024-05-28_13-33-59.808014,"92.25,78.00"
2024-05-28_13-33-59.840755,"68.77,71.14"
2024-05-28_13-33-59.873505,"88.39,36.02"
2024-05-28_13-33-59.906330,"79.90,55.02"
2024-05-28_13-33-59.938978,"62.73,72.36"
2024-05-28_13-33-59.967717,"51.23,74.56"
2024-05-28_13-34-00.000497,"62.33,66.22"
2024-05-28_13-34-00.033301,"63.20,69.72"
2024-05-28_13-34-00.066832,"59.82,79.45"
2024-05-28_13-34-00.098827,"52.19,80.74"
2024-05-28_13-34-00.131624,"93.03,70.71"
2024-05-28_13-34-00.164239,"75.50,68.42"
2024-05-28_13-34-00.193073,"89.08,61.02"
2024-05-28_13-34-00.225796,"74.11,55.58"
2024-05-28_13-34-00.258571,"44.90,64.67"
2024-05-28_13-34-00.291301,"52.89,71.06"
2024-05-28_13-34-00.324062,"61.44,65.00"
2024-05-28_13-34-00.356892,"74.58,78.62"
2024-05-28_13-34-00.389584,"50.13,74.65"
2024-05-28_13-34-00.418264,"80.85,72.75"
2024-05-28_13-34-00.451193,"74.97,76.17"
2024-05-28_13-34-00.483832,"86.23,67.22"
2024-05-28_13-34-00.517542,"74.54,40.11"
2024-05-28_13-34-00.549407,"89.06,60.78"
2024-05-28_13-34-00.582188,"56.67,65.52"
2024-05-28_13-34-00.614824,"45.86,69.09"
2024-05-28_13-34-00.643608,"61.66,75.54"
2024-05-28_13-34-00.676383,"69.92,70.32"
2024-05-28_13-34-00.709166,"50.61,73.46"
2024-05-28_13-34-00.741872,"78.45,73.24"
2024-05-28_13-34-00.774678,"76.98,79.15"
2024-05-28_13-34-00.807462,"83.81,60.83"
2024-05-28_13-34-00.840166,"80.50,42.22"
2024-05-28_13-34-00.872860,"76.27,65.17"
2024-05-28_13-34-00.901843,"57.67,64.99"
2024-05-28_13-34-00.934410,"55.24,75.16"
2024-05-28_13-34-00.967126,"68.34,74.92"
2024-05-28_13-34-00.999951,"64.51,68.95"
2024-05-28_13-34-01.032734,"57.11,78.60"
2024-05-28_13-34-01.065386,"90.98,68.34"
2024-05-28_13-34-01.098126,"66.96,77.92"
2024-05-28_13-34-01.126890,"86.76,41.54"
2024-05-28_13-34-01.159870,"74.86,45.75"
2024-05-28_13-34-01.192466,"57.43,56.81"
2024-05-28_13-34-01.225229,"56.94,74.03"
2024-05-28_13-34-01.258072,"57.44,66.57"
2024-05-28_13-34-01.290797,"53.10,71.55"
2024-05-28_13-34-01.323373,"61.68,70.52"
2024-05-28_13-34-01.352416,"67.07,81.09"
2024-05-28_13-34-01.384988,"85.34,79.87"
2024-05-28_13-34-01.417697,"73.74,46.65"
2024-05-28_13-34-01.450511,"87.34,38.56"
2024-05-28_13-34-01.483463,"83.39,65.00"
2024-05-28_13-34-01.515956,"51.52,61.82"
2024-05-28_13-34-01.548666,"50.75,70.79"
2024-05-28_13-34-01.577457,"58.26,65.40"
2024-05-28_13-34-01.610225,"66.98,73.45"
2024-05-28_13-34-01.643020,"57.89,69.48"
2024-05-28_13-34-01.675763,"86.44,82.67"
2024-05-28_13-34-01.708548,"73.88,77.14"
2024-05-28_13-34-01.741267,"80.32,66.45"
2024-05-28_13-34-01.774020,"84.65,34.48"
2024-05-28_13-34-01.802757,"86.90,62.29"
2024-05-28_13-34-01.835723,"48.10,63.35"
2024-05-28_13-34-01.868342,"53.46,70.40"
2024-05-28_13-34-01.936820,"61.72,65.80"
2024-05-28_13-34-01.939804,"80.63,74.25"
2024-05-28_13-34-01.968849,"69.17,71.49"
2024-05-28_13-34-01.999415,"76.03,85.74"
2024-05-28_13-34-02.028115,"74.54,76.50"
2024-05-28_13-34-02.060921,"83.65,66.44"
2024-05-28_13-34-02.093613,"81.33,38.95"
2024-05-28_13-34-02.126437,"87.36,59.88"
2024-05-28_13-34-02.159097,"49.07,64.39"
2024-05-28_13-34-02.191820,"52.00,70.19"
2024-05-28_13-34-02.224636,"60.44,66.70"
2024-05-28_13-34-02.253378,"73.21,78.06"
2024-05-28_13-34-02.289939,"49.66,73.94"
2024-05-28_13-34-02.319226,"76.33,74.89"
2024-05-28_13-34-02.351709,"73.28,75.29"
2024-05-28_13-34-02.384577,"87.59,66.33"
2024-05-28_13-34-02.417425,"78.13,38.79"
2024-05-28_13-34-02.449876,"79.39,80.11"
2024-05-28_13-34-02.478614,"56.53,64.91"
2024-05-28_13-34-02.511433,"46.79,69.63"
2024-05-28_13-34-02.544173,"62.15,76.57"
2024-05-28_13-34-02.576941,"64.82,69.26"
2024-05-28_13-34-02.609709,"51.33,74.57"
2024-05-28_13-34-02.642425,"89.38,72.33"
2024-05-28_13-34-02.675142,"76.34,78.32"
2024-05-28_13-34-02.703964,"84.77,60.97"
2024-05-28_13-34-02.736842,"80.94,43.00"
2024-05-28_13-34-02.769426,"78.97,77.31"
2024-05-28_13-34-02.802171,"57.11,64.20"
2024-05-28_13-34-02.834991,"57.91,75.73"
2024-05-28_13-34-02.867998,"51.62,71.85"
2024-05-28_13-34-02.900755,"62.99,68.27"
2024-05-28_13-34-02.929176,"58.73,81.02"
2024-05-28_13-34-02.961946,"67.48,77.86"
2024-05-28_13-34-02.994778,"70.00,71.84"
2024-05-28_13-34-03.027485,"87.94,60.62"
2024-05-28_13-34-03.060238,"57.88,70.27"
2024-05-28_13-34-03.093040,"57.74,55.95"
2024-05-28_13-34-03.125829,"56.95,74.65"
2024-05-28_13-34-03.154475,"58.88,67.46"
2024-05-28_13-34-03.187248,"53.02,70.95"
2024-05-28_13-34-03.219985,"66.91,70.38"
2024-05-28_13-34-03.252889,"53.30,81.86"
2024-05-28_13-34-03.285719,"91.86,73.35"
2024-05-28_13-34-03.318298,"69.71,66.23"
2024-05-28_13-34-03.350938,"88.00,59.66"
2024-05-28_13-34-03.379756,"81.21,45.06"
2024-05-28_13-34-03.412528,"51.84,62.16"
2024-05-28_13-34-03.445316,"52.99,71.94"
2024-05-28_13-34-03.478040,"58.41,65.02"
2024-05-28_13-34-03.510851,"69.79,71.87"
2024-05-28_13-34-03.543598,"64.62,69.57"
2024-05-28_13-34-03.576221,"82.29,81.91"
2024-05-28_13-34-03.605032,"76.29,77.73"
2024-05-28_13-34-03.637809,"83.79,66.40"
2024-05-28_13-34-03.670669,"72.31,34.34"
2024-05-28_13-34-03.703469,"79.34,62.14"
2024-05-28_13-34-03.736186,"54.35,65.20"
2024-05-28_13-34-03.768838,"53.98,71.62"
2024-05-28_13-34-03.801540,"64.62,66.70"
2024-05-28_13-34-03.830317,"69.94,70.88"
2024-05-28_13-34-03.863070,"53.15,80.11"
2024-05-28_13-34-03.895873,"74.87,74.72"
2024-05-28_13-34-03.930179,"73.87,76.31"
2024-05-28_13-34-03.961400,"87.72,66.83"
2024-05-28_13-34-03.994201,"78.86,62.25"
2024-05-28_13-34-04.026777,"47.97,75.37"
2024-05-28_13-34-04.059601,"58.02,65.31"
2024-05-28_13-34-04.088378,"53.45,70.15"
2024-05-28_13-34-04.121137,"61.78,65.48"
2024-05-28_13-34-04.153961,"67.63,78.40"
2024-05-28_13-34-04.186753,"51.01,76.15"
2024-05-28_13-34-04.219448,"84.11,73.97"
2024-05-28_13-34-04.252119,"75.02,75.43"
2024-05-28_13-34-04.284817,"90.54,47.67"
2024-05-28_13-34-04.340257,"67.13,39.36"
2024-05-28_13-34-04.355203,"66.14,72.08"
2024-05-28_13-34-04.379189,"56.90,64.90"
2024-05-28_13-34-04.411989,"46.61,69.28"
2024-05-28_13-34-04.444725,"61.78,76.08"
2024-05-28_13-34-04.477437,"61.14,71.15"
2024-05-28_13-34-04.510073,"51.44,73.83"
2024-05-28_13-34-04.538947,"73.98,75.20"
2024-05-28_13-34-04.571644,"78.97,62.64"
2024-05-28_13-34-04.604473,"86.07,41.10"
2024-05-28_13-34-04.637253,"50.37,64.53"
2024-05-28_13-34-04.670002,"65.74,58.24"
2024-05-28_13-34-04.702692,"56.88,64.23"
2024-05-28_13-34-04.735409,"57.41,75.40"
2024-05-28_13-34-04.764209,"66.67,73.31"
2024-05-28_13-34-04.796974,"58.58,69.30"
2024-05-28_13-34-04.831310,"59.33,83.11"
2024-05-28_13-34-04.862679,"96.53,64.55"
2024-05-28_13-34-04.895332,"72.77,76.62"
2024-05-28_13-34-04.928008,"89.78,42.04"
2024-05-28_13-34-04.960706,"71.76,62.14"
2024-05-28_13-34-04.989491,"48.01,56.46"
2024-05-28_13-34-05.022374,"56.90,79.27"
2024-05-28_13-34-05.055037,"57.31,66.25"
2024-05-28_13-34-05.087822,"66.98,73.60"
2024-05-28_13-34-05.120798,"61.62,70.33"
2024-05-28_13-34-05.153296,"65.64,81.93"
2024-05-28_13-34-05.186243,"81.35,77.42"
2024-05-28_13-34-05.214809,"78.08,45.68"
2024-05-28_13-34-05.247649,"89.80,38.37"
2024-05-28_13-34-05.280408,"69.21,64.60"
2024-05-28_13-34-05.313103,"58.69,63.27"
2024-05-28_13-34-05.346009,"51.31,70.79"
2024-05-28_13-34-05.378595,"57.39,66.89"
2024-05-28_13-34-05.411263,"66.82,72.53"
2024-05-28_13-34-05.440041,"54.26,69.50"
2024-05-28_13-34-05.472950,"72.37,78.94"
2024-05-28_13-34-05.505635,"73.37,76.85"
2024-05-28_13-34-05.538380,"85.11,65.83"
2024-05-28_13-34-05.571085,"85.87,33.95"
2024-05-28_13-34-05.603897,"79.74,70.00"
2024-05-28_13-34-05.636677,"51.42,64.12"
2024-05-28_13-34-05.666480,"53.10,70.73"
2024-05-28_13-34-05.747610,"62.81,67.01"
2024-05-28_13-34-05.748704,"58.35,71.34"
2024-05-28_13-34-05.764191,"50.81,80.49"
2024-05-28_13-34-05.796440,"83.66,71.96"
2024-05-28_13-34-05.829176,"73.19,75.23"
2024-05-28_13-34-05.861849,"88.44,65.95"
2024-05-28_13-34-05.890646,"83.33,38.76"
2024-05-28_13-34-05.923478,"75.85,70.92"
2024-05-28_13-34-05.956326,"50.24,63.46"
2024-05-28_13-34-05.989081,"53.04,70.83"
2024-05-28_13-34-06.021694,"61.96,66.43"
2024-05-28_13-34-06.067094,"81.69,81.40"
2024-05-28_13-34-06.088899,"71.15,65.73"
2024-05-28_13-34-06.115922,"86.55,70.29"
2024-05-28_13-34-06.148722,"72.85,75.03"
2024-05-28_13-34-06.181476,"88.33,48.66"
2024-05-28_13-34-06.214261,"80.76,39.53"
2024-05-28_13-34-06.247008,"75.01,62.20"
2024-05-28_13-34-06.279767,"55.30,64.97"
2024-05-28_13-34-06.312443,"47.33,69.71"
2024-05-28_13-34-06.341214,"60.49,75.75"
2024-05-28_13-34-06.373954,"67.89,70.94"
2024-05-28_13-34-06.406716,"50.91,74.56"
2024-05-28_13-34-06.439503,"80.35,87.61"
2024-05-28_13-34-06.472460,"75.41,79.44"
2024-05-28_13-34-06.505063,"84.17,61.44"
2024-05-28_13-34-06.537731,"76.88,42.83"
2024-05-28_13-34-06.566449,"75.52,57.20"
2024-05-28_13-34-06.599281,"55.11,65.25"
2024-05-28_13-34-06.632072,"55.49,75.17"
2024-05-28_13-34-06.664792,"53.00,71.27"
2024-05-28_13-34-06.697517,"76.22,68.48"
2024-05-28_13-34-06.730311,"54.68,73.90"
2024-05-28_13-34-06.762947,"92.68,71.72"
2024-05-28_13-34-06.791768,"63.94,81.00"
2024-05-28_13-34-06.824652,"81.86,61.26"
2024-05-28_13-34-06.858178,"80.72,46.20"
2024-05-28_13-34-06.890075,"80.66,58.15"
2024-05-28_13-34-06.922797,"55.90,75.29"
2024-05-28_13-34-06.955575,"55.33,65.57"
2024-05-28_13-34-06.988238,"54.10,70.97"
2024-05-28_13-34-07.021001,"77.67,69.08"
2024-05-28_13-34-07.049801,"66.56,77.92"
2024-05-28_13-34-07.082578,"93.63,74.23"
2024-05-28_13-34-07.115350,"63.37,69.85"
2024-05-28_13-34-07.148073,"84.28,38.96"
2024-05-28_13-34-07.180875,"89.06,57.24"
2024-05-28_13-34-07.213655,"65.22,50.24"
2024-05-28_13-34-07.246260,"51.47,71.69"
2024-05-28_13-34-07.275046,"57.41,64.80"
2024-05-28_13-34-07.307893,"55.38,70.62"
2024-05-28_13-34-07.340641,"78.25,68.81"
2024-05-28_13-34-07.373371,"49.02,79.16"
2024-05-28_13-34-07.406228,"89.36,78.41"
2024-05-28_13-34-07.439112,"69.15,70.92"
2024-05-28_13-34-07.471600,"86.49,57.29"
2024-05-28_13-34-07.500351,"78.85,57.44"
2024-05-28_13-34-07.533128,"66.84,51.25"
2024-05-28_13-34-07.565949,"51.07,71.19"
2024-05-28_13-34-07.598655,"62.48,65.55"
2024-05-28_13-34-07.631449,"60.24,71.63"
2024-05-28_13-34-07.664292,"56.07,78.78"
2024-05-28_13-34-07.696835,"52.57,74.51"
2024-05-28_13-34-07.725597,"92.23,72.35"
2024-05-28_13-34-07.758415,"77.46,66.98"
2024-05-28_13-34-07.791193,"89.43,40.11"
2024-05-28_13-34-07.824078,"74.42,54.08"
2024-05-28_13-34-07.856727,"60.18,64.63"
2024-05-28_13-34-07.889436,"51.68,70.46"
2024-05-28_13-34-07.922166,"61.38,66.23"
2024-05-28_13-34-07.951946,"67.15,77.47"
2024-05-28_13-34-07.983790,"49.65,74.00"
2024-05-28_13-34-08.017570,"54.92,73.88"
2024-05-28_13-34-08.049243,"90.51,71.24"
2024-05-28_13-34-08.093085,"79.27,70.44"
2024-05-28_13-34-08.115131,"87.33,62.03"
2024-05-28_13-34-08.147397,"72.15,39.51"
2024-05-28_13-34-08.176195,"53.15,65.18"
2024-05-28_13-34-08.209051,"45.13,69.10"
2024-05-28_13-34-08.241806,"61.72,76.03"
2024-05-28_13-34-08.274523,"63.52,69.35"
2024-05-28_13-34-08.307319,"49.53,72.93"
2024-05-28_13-34-08.340091,"75.06,74.43"
2024-05-28_13-34-08.372719,"76.00,81.80"
2024-05-28_13-34-08.401464,"81.58,60.85"
2024-05-28_13-34-08.434304,"75.06,42.81"
2024-05-28_13-34-08.468019,"87.44,60.70"
2024-05-28_13-34-08.499782,"54.04,64.54"
2024-05-28_13-34-08.532538,"55.97,75.95"
2024-05-28_13-34-08.565354,"54.65,71.77"
2024-05-28_13-34-08.598042,"74.92,67.31"
2024-05-28_13-34-08.626752,"55.25,75.64"
2024-05-28_13-34-08.659751,"92.54,72.05"
2024-05-28_13-34-08.692300,"62.89,79.98"
2024-05-28_13-34-08.725050,"82.47,61.14"
2024-05-28_13-34-08.757861,"82.55,46.53"
2024-05-28_13-34-08.790587,"68.35,59.30"
2024-05-28_13-34-08.823419,"53.17,74.92"
2024-05-28_13-34-08.852112,"58.02,66.78"
2024-05-28_13-34-08.885260,"54.11,70.79"
2024-05-28_13-34-08.918036,"74.00,68.19"
2024-05-28_13-34-08.950351,"50.50,87.32"
2024-05-28_13-34-08.983169,"86.95,84.54"
2024-05-28_13-34-09.015918,"62.27,68.54"
2024-05-28_13-34-09.048587,"80.11,73.98"
2024-05-28_13-34-09.077298,"55.15,68.58"
2024-05-28_13-34-09.110332,"65.27,64.72"
2024-05-28_13-34-09.143095,"51.35,71.04"
2024-05-28_13-34-09.180811,"59.14,65.72"
2024-05-28_13-34-09.208374,"54.33,70.72"
2024-05-28_13-34-09.241168,"74.23,68.95"
2024-05-28_13-34-09.273921,"50.80,91.14"
2024-05-28_13-34-09.306671,"86.61,80.87"
2024-05-28_13-34-09.335502,"68.51,69.91"
2024-05-28_13-34-09.368248,"88.28,57.74"
2024-05-28_13-34-09.400899,"78.24,54.51"
2024-05-28_13-34-09.433659,"79.70,54.33"
2024-05-28_13-34-09.466481,"53.27,72.52"
2024-05-28_13-34-09.499153,"59.98,65.35"
2024-05-28_13-34-09.532002,"49.05,69.88"
2024-05-28_13-34-09.560673,"66.01,78.35"
2024-05-28_13-34-09.593456,"49.71,70.13"
2024-05-28_13-34-09.626213,"88.23,78.50"
2024-05-28_13-34-09.659123,"74.54,70.38"
2024-05-28_13-34-09.691715,"91.88,61.10"
2024-05-28_13-34-09.724410,"80.43,60.97"
2024-05-28_13-34-09.757140,"64.83,46.10"
2024-05-28_13-34-09.786072,"50.38,71.34"
2024-05-28_13-34-09.818684,"61.12,64.65"
2024-05-28_13-34-09.851481,"57.95,76.95"
2024-05-28_13-34-09.884401,"59.49,72.45"
2024-05-28_13-34-09.917069,"51.80,69.69"
2024-05-28_13-34-09.949792,"81.32,77.63"
2024-05-28_13-34-09.982515,"75.02,72.72"
2024-05-28_13-34-10.011234,"85.44,41.48"
2024-05-28_13-34-10.044030,"67.63,41.75"
2024-05-28_13-34-10.076708,"55.07,65.89"
2024-05-28_13-34-10.109521,"45.38,73.90"
2024-05-28_13-34-10.142477,"61.03,74.70"
2024-05-28_13-34-10.175167,"57.31,67.35"
2024-05-28_13-34-10.207928,"59.96,73.53"
2024-05-28_13-34-10.236698,"55.58,70.26"
2024-05-28_13-34-10.275102,"90.86,83.76"
2024-05-28_13-34-10.302201,"76.62,76.10"
2024-05-28_13-34-10.335126,"80.85,45.27"
2024-05-28_13-34-10.368391,"67.35,38.76"
2024-05-28_13-34-10.400304,"66.50,54.25"
2024-05-28_13-34-10.433080,"63.88,77.77"
2024-05-28_13-34-10.461802,"51.73,70.80"
2024-05-28_13-34-10.494573,"57.53,67.35"
2024-05-28_13-34-10.527288,"62.84,71.88"
2024-05-28_13-34-10.560138,"54.23,69.87"
2024-05-28_13-34-10.592888,"69.64,83.31"
2024-05-28_13-34-10.625697,"73.65,76.07"
2024-05-28_13-34-10.658295,"86.61,66.02"
2024-05-28_13-34-10.687147,"86.13,33.55"
2024-05-28_13-34-10.719882,"77.08,69.01"
2024-05-28_13-34-10.752618,"51.79,64.22"
2024-05-28_13-34-10.787515,"51.72,71.43"
2024-05-28_13-34-10.819419,"62.52,66.41"
2024-05-28_13-34-10.850908,"64.75,71.00"
2024-05-28_13-34-10.883773,"50.70,81.01"
2024-05-28_13-34-10.912393,"85.28,72.86"
2024-05-28_13-34-10.945136,"73.23,76.09"
2024-05-28_13-34-10.978046,"85.02,66.16"
2024-05-28_13-34-11.010663,"81.26,38.95"
2024-05-28_13-34-11.043550,"84.93,59.48"
2024-05-28_13-34-11.076133,"53.95,64.45"
2024-05-28_13-34-11.108936,"45.16,74.04"
2024-05-28_13-34-11.137660,"62.00,66.29"
2024-05-28_13-34-11.170499,"73.59,77.49"
2024-05-28_13-34-11.203232,"49.56,75.56"
2024-05-28_13-34-11.236079,"71.00,73.87"
2024-05-28_13-34-11.268788,"74.47,76.46"
2024-05-28_13-34-11.301657,"83.80,49.30"
2024-05-28_13-34-11.334222,"87.48,41.06"
2024-05-28_13-34-11.362982,"72.99,40.66"
2024-05-28_13-34-11.395742,"51.80,64.82"
2024-05-28_13-34-11.428418,"46.16,69.87"
2024-05-28_13-34-11.461247,"62.79,75.07"
2024-05-28_13-34-11.494001,"64.63,69.77"
2024-05-28_13-34-11.526747,"51.09,73.68"
2024-05-28_13-34-11.559475,"74.64,73.04"
2024-05-28_13-34-11.588238,"88.24,79.09"
2024-05-28_13-34-11.620933,"80.68,61.53"
2024-05-28_13-34-11.653821,"84.03,43.63"
2024-05-28_13-34-11.686650,"73.11,38.24"
2024-05-28_13-34-11.719262,"53.21,65.93"
2024-05-28_13-34-11.752165,"54.67,75.13"
2024-05-28_13-34-11.784735,"53.97,71.93"
2024-05-28_13-34-11.813509,"67.26,67.77"
2024-05-28_13-34-11.846229,"55.34,73.05"
2024-05-28_13-34-11.879056,"70.21,74.21"
2024-05-28_13-34-11.911823,"78.27,76.09"
2024-05-28_13-34-11.944650,"78.73,76.07"
2024-05-28_13-34-11.977436,"98.07,46.33"
2024-05-28_13-34-12.009961,"68.83,56.43"
2024-05-28_13-34-12.038801,"57.64,61.75"
2024-05-28_13-34-12.071529,"54.73,65.29"
2024-05-28_13-34-12.104285,"69.65,75.84"
2024-05-28_13-34-12.137196,"72.60,67.36"
2024-05-28_13-34-12.169861,"52.89,71.88"
2024-05-28_13-34-12.202658,"69.42,86.43"
2024-05-28_13-34-12.235309,"78.19,67.37"
2024-05-28_13-34-12.264139,"77.08,60.15"
2024-05-28_13-34-12.308079,"100.85,47.18"
2024-05-28_13-34-12.329560,"66.67,57.83"
2024-05-28_13-34-12.362368,"69.17,60.07"
2024-05-28_13-34-12.395221,"54.70,64.61"
2024-05-28_13-34-12.427915,"55.19,71.05"
2024-05-28_13-34-12.460575,"71.70,66.44"
2024-05-28_13-34-12.489344,"55.06,79.13"
2024-05-28_13-34-12.522095,"52.83,74.16"
2024-05-28_13-34-12.554916,"84.87,64.14"
2024-05-28_13-34-12.587868,"78.94,73.90"
2024-05-28_13-34-12.620423,"98.04,47.98"
2024-05-28_13-34-12.653203,"65.77,58.64"
2024-05-28_13-34-12.685923,"69.00,59.92"
2024-05-28_13-34-12.714630,"61.02,66.03"
2024-05-28_13-34-12.747399,"47.35,69.08"
2024-05-28_13-34-12.780194,"72.05,76.28"
2024-05-28_13-34-12.812961,"55.60,70.95"
2024-05-28_13-34-12.845887,"52.42,85.32"
2024-05-28_13-34-12.878529,"90.78,76.07"
2024-05-28_13-34-12.911127,"85.74,77.19"
2024-05-28_13-34-12.939949,"88.65,40.53"
2024-05-28_13-34-12.972641,"66.04,59.88"
2024-05-28_13-34-13.005432,"69.86,58.57"
2024-05-28_13-34-13.038371,"58.93,65.30"
2024-05-28_13-34-13.071144,"56.88,75.03"
2024-05-28_13-34-13.103760,"68.70,72.44"
2024-05-28_13-34-13.137041,"80.49,72.85"
2024-05-28_13-34-13.169155,"66.23,90.17"
2024-05-28_13-34-13.197989,"97.05,65.87"
2024-05-28_13-34-13.230851,"73.90,77.52"
2024-05-28_13-34-13.263509,"88.70,41.36"
2024-05-28_13-34-13.296327,"58.21,66.13"
2024-05-28_13-34-13.329086,"59.65,56.12"
2024-05-28_13-34-13.361717,"57.54,74.67"
2024-05-28_13-34-13.394458,"57.69,66.36"
2024-05-28_13-34-13.423265,"68.45,71.33"
2024-05-28_13-34-13.455987,"60.87,70.99"
2024-05-28_13-34-13.488814,"66.93,81.90"
2024-05-28_13-34-13.522908,"85.59,79.17"
2024-05-28_13-34-13.554509,"73.98,46.33"
2024-05-28_13-34-13.587304,"87.64,38.64"
2024-05-28_13-34-13.621018,"68.39,65.32"
2024-05-28_13-34-13.649071,"61.73,62.81"
2024-05-28_13-34-13.681443,"54.14,71.16"
2024-05-28_13-34-13.714141,"61.79,66.06"
2024-05-28_13-34-13.746869,"72.05,75.97"
2024-05-28_13-34-13.779580,"74.29,71.20"
2024-05-28_13-34-13.812453,"88.68,90.98"
2024-05-28_13-34-13.845187,"74.07,78.20"
2024-05-28_13-34-13.873819,"82.02,47.84"
2024-05-28_13-34-13.906620,"60.28,34.01"
2024-05-28_13-34-13.939331,"66.82,72.10"
2024-05-28_13-34-13.972174,"52.39,64.82"
2024-05-28_13-34-14.004892,"55.67,71.16"
2024-05-28_13-34-14.038446,"65.17,66.35"
2024-05-28_13-34-14.073683,"59.86,73.09"
2024-05-28_13-34-14.106279,"54.10,80.00"
2024-05-28_13-34-14.134055,"69.53,73.74"
2024-05-28_13-34-14.164715,"68.95,87.25"
2024-05-28_13-34-14.197401,"82.13,71.58"
2024-05-28_13-34-14.230191,"89.79,40.39"
2024-05-28_13-34-14.262923,"73.07,41.05"
2024-05-28_13-34-14.295615,"46.29,64.84"
2024-05-28_13-34-14.324428,"52.42,70.71"
2024-05-28_13-34-14.357185,"62.57,65.93"
2024-05-28_13-34-14.389914,"65.56,77.48"
2024-05-28_13-34-14.422655,"50.57,73.74"
2024-05-28_13-34-14.455578,"55.35,75.70"
2024-05-28_13-34-14.488386,"89.43,73.16"
2024-05-28_13-34-14.520908,"80.11,67.90"
2024-05-28_13-34-14.549639,"94.68,40.30"
2024-05-28_13-34-14.582450,"75.20,65.00"
2024-05-28_13-34-14.615194,"61.02,48.08"
2024-05-28_13-34-14.647968,"45.14,69.81"
2024-05-28_13-34-14.680770,"62.06,76.04"
2024-05-28_13-34-14.713454,"65.07,68.28"
2024-05-28_13-34-14.746299,"52.49,74.57"
2024-05-28_13-34-14.774936,"58.82,74.78"
2024-05-28_13-34-14.807718,"88.06,79.17"
2024-05-28_13-34-14.840494,"78.05,61.01"
2024-05-28_13-34-14.873308,"72.40,44.00"
2024-05-28_13-34-14.906027,"73.08,47.95"
2024-05-28_13-34-14.938859,"51.82,65.28"
2024-05-28_13-34-14.971481,"57.98,76.76"
2024-05-28_13-34-15.000268,"55.47,73.05"
2024-05-28_13-34-15.033030,"69.20,67.67"
2024-05-28_13-34-15.065753,"58.23,75.99"
2024-05-28_13-34-15.099116,"80.23,74.30"
2024-05-28_13-34-15.131305,"59.05,81.97"
2024-05-28_13-34-15.164038,"75.09,59.77"
2024-05-28_13-34-15.196845,"56.20,68.43"
2024-05-28_13-34-15.225500,"63.02,48.16"
2024-05-28_13-34-15.258294,"53.40,75.99"
2024-05-28_13-34-15.291054,"58.14,67.22"
2024-05-28_13-34-15.323772,"53.99,70.77"
2024-05-28_13-34-15.356706,"74.71,67.35"
2024-05-28_13-34-15.389377,"57.95,86.72"
2024-05-28_13-34-15.422107,"94.12,77.36"
2024-05-28_13-34-15.450810,"60.50,68.84"
2024-05-28_13-34-15.483582,"80.88,40.16"
2024-05-28_13-34-15.516354,"100.98,46.44"
2024-05-28_13-34-15.549705,"64.80,58.20"
2024-05-28_13-34-15.581897,"60.93,61.00"
2024-05-28_13-34-15.614651,"53.69,64.21"
2024-05-28_13-34-15.647469,"53.74,70.21"
2024-05-28_13-34-15.676082,"75.54,67.09"
2024-05-28_13-34-15.708845,"55.09,79.26"
2024-05-28_13-34-15.741773,"52.45,86.27"
2024-05-28_13-34-15.789796,"93.24,77.39"
2024-05-28_13-34-15.807261,"77.77,73.72"
2024-05-28_13-34-15.839971,"93.68,47.38"
2024-05-28_13-34-15.872745,"64.77,59.06"
2024-05-28_13-34-15.901387,"69.02,59.36"
2024-05-28_13-34-15.934338,"57.56,64.86"
2024-05-28_13-34-15.966908,"48.21,69.40"
2024-05-28_13-34-15.999677,"75.00,77.82"
2024-05-28_13-34-16.032459,"58.46,69.58"
2024-05-28_13-34-16.065236,"68.99,85.30"
2024-05-28_13-34-16.097878,"89.26,77.68"
2024-05-28_13-34-16.134982,"81.16,77.27"
2024-05-28_13-34-16.159409,"89.42,41.63"
2024-05-28_13-34-16.192227,"52.10,64.16"
2024-05-28_13-34-16.224899,"45.17,73.75"
2024-05-28_13-34-16.257710,"58.04,64.89"
2024-05-28_13-34-16.290493,"57.56,75.46"
2024-05-28_13-34-16.323195,"66.72,74.10"
2024-05-28_13-34-16.355977,"58.45,69.90"
2024-05-28_13-34-16.384712,"61.79,95.22"
2024-05-28_13-34-16.417511,"88.88,63.54"
2024-05-28_13-34-16.450276,"74.74,76.77"
2024-05-28_13-34-16.483002,"90.30,41.32"
2024-05-28_13-34-16.515741,"70.47,62.32"
2024-05-28_13-34-16.548513,"64.16,55.80"
2024-05-28_13-34-16.581244,"59.69,74.60"
2024-05-28_13-34-16.611079,"56.70,67.80"
2024-05-28_13-34-16.646407,"69.86,72.14"
2024-05-28_13-34-16.676142,"62.68,69.42"
2024-05-28_13-34-16.708753,"66.87,83.03"
2024-05-28_13-34-16.742667,"86.02,77.64"
2024-05-28_13-34-16.773773,"74.42,65.15"
2024-05-28_13-34-16.806582,"87.71,37.90"
2024-05-28_13-34-16.837324,"83.65,62.15"
2024-05-28_13-34-16.868392,"53.34,62.13"
2024-05-28_13-34-16.915076,"51.73,71.46"
2024-05-28_13-34-16.933551,"59.10,66.00"
2024-05-28_13-34-16.966719,"67.27,71.64"
2024-05-28_13-34-16.999194,"57.81,69.90"
2024-05-28_13-34-17.031781,"77.22,85.57"
2024-05-28_13-34-17.060570,"73.87,77.31"
2024-05-28_13-34-17.093298,"79.28,66.26"
2024-05-28_13-34-17.126086,"85.15,34.66"
2024-05-28_13-34-17.158828,"86.00,62.20"
2024-05-28_13-34-17.191637,"51.27,63.22"
2024-05-28_13-34-17.224324,"51.73,75.35"
2024-05-28_13-34-17.257111,"62.46,66.18"
2024-05-28_13-34-17.285836,"70.61,70.58"
2024-05-28_13-34-17.318718,"52.13,80.81"
2024-05-28_13-34-17.351373,"68.84,74.77"
2024-05-28_13-34-17.387142,"76.88,77.21"
2024-05-28_13-34-17.418035,"80.89,49.60"
2024-05-28_13-34-17.449606,"91.02,60.95"
2024-05-28_13-34-17.482298,"74.59,40.91"
2024-05-28_13-34-17.511090,"47.62,64.11"
2024-05-28_13-34-17.543882,"53.26,70.91"
2024-05-28_13-34-17.576772,"61.17,65.13"
2024-05-28_13-34-17.609509,"75.93,78.22"
2024-05-28_13-34-17.642205,"49.98,74.28"
2024-05-28_13-34-17.674977,"81.70,73.60"
2024-05-28_13-34-17.707627,"75.95,76.31"
2024-05-28_13-34-17.736420,"87.14,67.23"
2024-05-28_13-34-17.770874,"75.60,39.77"
2024-05-28_13-34-17.801920,"88.77,63.05"
2024-05-28_13-34-17.834733,"55.11,65.59"
2024-05-28_13-34-17.867645,"46.38,69.18"
2024-05-28_13-34-17.900292,"61.66,76.51"
2024-05-28_13-34-17.932943,"75.93,69.77"
2024-05-28_13-34-17.961669,"49.92,73.48"
2024-05-28_13-34-17.994564,"81.85,86.21"
2024-05-28_13-34-18.027180,"75.33,79.94"
2024-05-28_13-34-18.059991,"81.99,60.91"
2024-05-28_13-34-18.092786,"77.16,42.82"
2024-05-28_13-34-18.125676,"86.39,58.16"
2024-05-28_13-34-18.158192,"55.16,65.09"
2024-05-28_13-34-18.186947,"55.43,74.88"
2024-05-28_13-34-18.220446,"50.94,72.42"
2024-05-28_13-34-18.252474,"83.86,72.03"
2024-05-28_13-34-18.285234,"55.86,76.07"
2024-05-28_13-34-18.318019,"95.10,71.08"
2024-05-28_13-34-18.350792,"63.78,79.82"
2024-05-28_13-34-18.384005,"84.06,41.33"
2024-05-28_13-34-18.412334,"83.21,45.87"
2024-05-28_13-34-18.445013,"71.12,57.70"
2024-05-28_13-34-18.477732,"53.78,74.30"
2024-05-28_13-34-18.510600,"57.88,66.42"
2024-05-28_13-34-18.543341,"55.43,71.58"
2024-05-28_13-34-18.576284,"71.72,68.48"
2024-05-28_13-34-18.609261,"50.90,73.59"
2024-05-28_13-34-18.669499,"83.26,74.49"
2024-05-28_13-34-18.674129,"64.61,68.36"
2024-05-28_13-34-18.716004,"82.50,60.25"
2024-05-28_13-34-18.741142,"89.02,56.93"
2024-05-28_13-34-18.768822,"65.38,50.39"
2024-05-28_13-34-18.801562,"51.12,71.89"
2024-05-28_13-34-18.834159,"59.03,65.28"
2024-05-28_13-34-18.866824,"53.45,71.78"
2024-05-28_13-34-18.895647,"69.26,67.71"
2024-05-28_13-34-18.928332,"51.82,84.82"
2024-05-28_13-34-18.961164,"94.48,70.03"
2024-05-28_13-34-18.993890,"69.66,68.38"
2024-05-28_13-34-19.026637,"91.02,35.35"
2024-05-28_13-34-19.059388,"67.27,59.88"
2024-05-28_13-34-19.092037,"63.34,49.74"
2024-05-28_13-34-19.121485,"52.68,71.66"
2024-05-28_13-34-19.153899,"60.63,65.24"
2024-05-28_13-34-19.187106,"62.84,71.28"
2024-05-28_13-34-19.219688,"71.60,79.84"
2024-05-28_13-34-19.251935,"61.02,88.96"
2024-05-28_13-34-19.284658,"84.44,69.58"
2024-05-28_13-34-19.317412,"73.27,69.49"
2024-05-28_13-34-19.346145,"95.39,60.58"
2024-05-28_13-34-19.379092,"76.57,62.40"
2024-05-28_13-34-19.411696,"54.83,45.99"
2024-05-28_13-34-19.444493,"51.35,70.72"
2024-05-28_13-34-19.477709,"59.43,66.26"
2024-05-28_13-34-19.509870,"69.55,76.87"
2024-05-28_13-34-19.542766,"52.39,73.28"
2024-05-28_13-34-19.571780,"53.54,83.80"
2024-05-28_13-34-19.604256,"86.34,78.72"
2024-05-28_13-34-19.637026,"77.69,70.11"
2024-05-28_13-34-19.669751,"86.69,60.74"
2024-05-28_13-34-19.702483,"79.55,60.81"
2024-05-28_13-34-19.735222,"69.90,46.93"
2024-05-28_13-34-19.767874,"42.28,69.80"
2024-05-28_13-34-19.800182,"61.36,75.65"
2024-05-28_13-34-19.829548,"70.82,67.77"
2024-05-28_13-34-19.862231,"58.49,73.22"
2024-05-28_13-34-19.895029,"55.93,70.40"
2024-05-28_13-34-19.927882,"88.45,84.49"
2024-05-28_13-34-19.960533,"78.25,75.27"
2024-05-28_13-34-19.993195,"90.66,44.96"
2024-05-28_13-34-20.022357,"77.97,57.15"
2024-05-28_13-34-20.054713,"71.75,46.62"
2024-05-28_13-34-20.087581,"54.79,76.11"
2024-05-28_13-34-20.120891,"51.75,71.16"
2024-05-28_13-34-20.153057,"72.45,65.92"
2024-05-28_13-34-20.185800,"62.55,73.73"
2024-05-28_13-34-20.218539,"51.82,83.14"
2024-05-28_13-34-20.247253,"86.62,84.47"
2024-05-28_13-34-20.280044,"63.44,74.46"
2024-05-28_13-34-20.312815,"87.17,70.15"
2024-05-28_13-34-20.345673,"58.24,60.57"
2024-05-28_13-34-20.378311,"67.17,62.27"
2024-05-28_13-34-20.411027,"54.49,65.59"
2024-05-28_13-34-20.443754,"53.09,70.30"
2024-05-28_13-34-20.473361,"61.23,68.00"
2024-05-28_13-34-20.505338,"57.56,71.85"
2024-05-28_13-34-20.538268,"51.84,80.59"
2024-05-28_13-34-20.570966,"88.98,76.26"
2024-05-28_13-34-20.603710,"76.55,75.40"
2024-05-28_13-34-20.636368,"94.02,47.83"
2024-05-28_13-34-20.669124,"70.06,38.56"
2024-05-28_13-34-20.697875,"67.61,61.08"
2024-05-28_13-34-20.730618,"53.30,63.97"
2024-05-28_13-34-20.763372,"52.16,71.12"
2024-05-28_13-34-20.796167,"62.71,67.04"
2024-05-28_13-34-20.828839,"58.16,78.67"
2024-05-28_13-34-20.861604,"51.77,74.38"
2024-05-28_13-34-20.894353,"96.69,70.83"
2024-05-28_13-34-20.923074,"74.34,74.08"
2024-05-28_13-34-20.955937,"89.38,48.24"
2024-05-28_13-34-20.988766,"66.84,40.02"
2024-05-28_13-34-21.022663,"64.71,73.56"
2024-05-28_13-34-21.054236,"56.13,64.71"
2024-05-28_13-34-21.087104,"46.84,69.45"
2024-05-28_13-34-21.119636,"63.84,76.66"
2024-05-28_13-34-21.148368,"62.70,69.29"
2024-05-28_13-34-21.181162,"51.43,74.05"
2024-05-28_13-34-21.213953,"88.66,72.12"
2024-05-28_13-34-21.246719,"75.94,77.72"
2024-05-28_13-34-21.279462,"81.15,60.47"
2024-05-28_13-34-21.312246,"56.24,67.66"
2024-05-28_13-34-21.344898,"71.11,75.44"
2024-05-28_13-34-21.373643,"56.62,64.78"
2024-05-28_13-34-21.406488,"58.68,75.61"
2024-05-28_13-34-21.439272,"51.76,71.47"
2024-05-28_13-34-21.472103,"68.42,68.30"
2024-05-28_13-34-21.509545,"56.04,75.21"
2024-05-28_13-34-21.540335,"83.41,74.86"
2024-05-28_13-34-21.570608,"63.41,79.03"
2024-05-28_13-34-21.598998,"86.65,62.11"
2024-05-28_13-34-21.631767,"84.75,45.10"
2024-05-28_13-34-21.664651,"72.25,64.35"
2024-05-28_13-34-21.697317,"57.88,74.97"
2024-05-28_13-34-21.730036,"57.34,66.87"
2024-05-28_13-34-21.762796,"52.00,70.88"
2024-05-28_13-34-21.795535,"70.16,68.92"
2024-05-28_13-34-21.828180,"50.60,85.57"
2024-05-28_13-34-21.857007,"85.62,84.99"
2024-05-28_13-34-21.889816,"64.87,70.01"
2024-05-28_13-34-21.922566,"82.06,59.68"
2024-05-28_13-34-21.955341,"87.75,56.87"
2024-05-28_13-34-21.988150,"77.99,50.11"
2024-05-28_13-34-22.021422,"49.70,72.24"
2024-05-28_13-34-22.053627,"54.95,64.69"
2024-05-28_13-34-22.082249,"55.49,70.55"
2024-05-28_13-34-22.115038,"76.91,68.57"
2024-05-28_13-34-22.149051,"48.42,80.51"
2024-05-28_13-34-22.180749,"93.73,77.77"
2024-05-28_13-34-22.213367,"66.91,71.46"
2024-05-28_13-34-22.246079,"85.83,57.72"
2024-05-28_13-34-22.278720,"77.46,57.26"
2024-05-28_13-34-22.307616,"56.37,57.15"
2024-05-28_13-34-22.340384,"49.23,76.55"
2024-05-28_13-34-22.373550,"61.33,65.44"
2024-05-28_13-34-22.405913,"48.64,69.67"
2024-05-28_13-34-22.441355,"66.73,78.59"
2024-05-28_13-34-22.472027,"51.92,72.15"
2024-05-28_13-34-22.504242,"69.25,77.44"
2024-05-28_13-34-22.532904,"84.17,69.10"
2024-05-28_13-34-22.565800,"88.47,61.41"
2024-05-28_13-34-22.598449,"80.37,40.91"
2024-05-28_13-34-22.631185,"59.33,60.36"
2024-05-28_13-34-22.663989,"50.28,73.26"
2024-05-28_13-34-22.696721,"60.37,64.78"
2024-05-28_13-34-22.729359,"56.12,77.15"
2024-05-28_13-34-22.758151,"61.07,73.61"
2024-05-28_13-34-22.790902,"51.73,69.86"
2024-05-28_13-34-22.823855,"81.09,77.00"
2024-05-28_13-34-22.856450,"79.97,71.62"
2024-05-28_13-34-22.889241,"84.15,76.56"
2024-05-28_13-34-22.921930,"80.90,40.89"
2024-05-28_13-34-22.954690,"65.60,46.63"
2024-05-28_13-34-22.983501,"42.20,70.91"
2024-05-28_13-34-23.016539,"58.39,75.67"
2024-05-28_13-34-23.052631,"58.82,67.79"
2024-05-28_13-34-23.081829,"62.09,71.86"
2024-05-28_13-34-23.114649,"56.59,69.86"
2024-05-28_13-34-23.147406,"79.26,81.36"
2024-05-28_13-34-23.180031,"79.10,76.55"
2024-05-28_13-34-23.208706,"77.36,64.28"
2024-05-28_13-34-23.241600,"92.27,38.86"
2024-05-28_13-34-23.274200,"68.46,66.31"
2024-05-28_13-34-23.306990,"61.83,62.53"
2024-05-28_13-34-23.339770,"52.40,73.16"
2024-05-28_13-34-23.373071,"74.17,69.17"
2024-05-28_13-34-23.405235,"65.13,73.00"
2024-05-28_13-34-23.433989,"55.16,70.44"
2024-05-28_13-34-23.466795,"75.67,95.64"
2024-05-28_13-34-23.499570,"74.41,77.88"
2024-05-28_13-34-23.532315,"79.16,66.56"
2024-05-28_13-34-23.565109,"86.09,57.05"
2024-05-28_13-34-23.597889,"85.62,63.54"
2024-05-28_13-34-23.630574,"50.06,64.01"
2024-05-28_13-34-23.659279,"54.41,71.24"
2024-05-28_13-34-23.692143,"61.55,65.94"
2024-05-28_13-34-23.725014,"71.06,70.83"
2024-05-28_13-34-23.757587,"53.10,80.18"
2024-05-28_13-34-23.790368,"82.61,72.78"
2024-05-28_13-34-23.823317,"76.06,76.93"
2024-05-28_13-34-23.855807,"84.48,67.25"
2024-05-28_13-34-23.884600,"79.23,38.97"
2024-05-28_13-34-23.917308,"74.33,64.86"
2024-05-28_13-34-23.950223,"49.70,64.68"
2024-05-28_13-34-23.982906,"52.07,70.14"
2024-05-28_13-34-24.015713,"62.58,64.89"
2024-05-28_13-34-24.048453,"64.07,77.89"
2024-05-28_13-34-24.081131,"51.45,73.17"
2024-05-28_13-34-24.113798,"54.70,73.84"
2024-05-28_13-34-24.142597,"91.64,69.22"
2024-05-28_13-34-24.175401,"79.61,69.06"
2024-05-28_13-34-24.208146,"92.19,40.05"
2024-05-28_13-34-24.240945,"78.19,59.15"
2024-05-28_13-34-24.273828,"69.09,47.66"
2024-05-28_13-34-24.306366,"43.50,69.62"
2024-05-28_13-34-24.335113,"59.36,75.58"
2024-05-28_13-34-24.368033,"92.27,70.62"
2024-05-28_13-34-24.400673,"57.08,74.80"
2024-05-28_13-34-24.433471,"56.83,69.48"
2024-05-28_13-34-24.466239,"84.79,84.41"
2024-05-28_13-34-24.506934,"79.19,75.30"
2024-05-28_13-34-24.531758,"87.63,44.76"
2024-05-28_13-34-24.564361,"79.31,58.93"
2024-05-28_13-34-24.593186,"69.20,46.49"
2024-05-28_13-34-24.625922,"51.33,75.73"
2024-05-28_13-34-24.658756,"51.92,70.88"
2024-05-28_13-34-24.691479,"72.55,67.24"
2024-05-28_13-34-24.724198,"60.00,71.94"
2024-05-28_13-34-24.756943,"51.49,69.03"
2024-05-28_13-34-24.789750,"87.46,85.23"
2024-05-28_13-34-24.818481,"76.30,75.49"
2024-05-28_13-34-24.851211,"91.13,47.58"
2024-05-28_13-34-24.883982,"74.24,33.04"
2024-05-28_13-34-24.916766,"63.85,62.23"
2024-05-28_13-34-24.949597,"54.55,64.65"
2024-05-28_13-34-24.982205,"51.94,71.34"
2024-05-28_13-34-25.014987,"62.44,66.59"
2024-05-28_13-34-25.043870,"65.23,70.93"
2024-05-28_13-34-25.076460,"50.82,80.94"
2024-05-28_13-34-25.109269,"84.60,71.50"
2024-05-28_13-34-25.142057,"72.82,76.04"
2024-05-28_13-34-25.174752,"87.67,47.93"
2024-05-28_13-34-25.207530,"82.06,38.73"
2024-05-28_13-34-25.240418,"75.81,62.46"
2024-05-28_13-34-25.269022,"50.95,63.58"
2024-05-28_13-34-25.322971,"50.89,70.83"
2024-05-28_13-34-25.338083,"59.64,66.37"
2024-05-28_13-34-25.367683,"84.00,81.21"
2024-05-28_13-34-25.400344,"50.42,76.63"
2024-05-28_13-34-25.432887,"80.98,73.44"
2024-05-28_13-34-25.465522,"74.07,76.26"
2024-05-28_13-34-25.494334,"85.88,48.82"
2024-05-28_13-34-25.527078,"77.93,40.30"
2024-05-28_13-34-25.559846,"74.11,63.20"
2024-05-28_13-34-25.592662,"52.83,65.07"
2024-05-28_13-34-25.625399,"46.30,69.86"
2024-05-28_13-34-25.658095,"62.11,75.17"
2024-05-28_13-34-25.690866,"77.88,69.55"
2024-05-28_13-34-25.719567,"51.12,74.03"
2024-05-28_13-34-25.752403,"86.73,73.36"
2024-05-28_13-34-25.785728,"76.73,80.65"
2024-05-28_13-34-25.817899,"80.97,61.32"
2024-05-28_13-34-25.850709,"84.37,43.54"
2024-05-28_13-34-25.883410,"74.00,50.33"
2024-05-28_13-34-25.916079,"52.05,66.14"
2024-05-28_13-34-25.944903,"55.15,75.16"
2024-05-28_13-34-25.977692,"52.95,71.92"
2024-05-28_13-34-26.010394,"68.84,67.56"
2024-05-28_13-34-26.043210,"57.47,72.76"
2024-05-28_13-34-26.075965,"53.31,77.51"
2024-05-28_13-34-26.108699,"81.12,75.22"
2024-05-28_13-34-26.141459,"77.10,75.86"
2024-05-28_13-34-26.170326,"93.48,46.59"
2024-05-28_13-34-26.202914,"69.72,54.28"
2024-05-28_13-34-26.235660,"60.44,62.03"
2024-05-28_13-34-26.268543,"54.78,65.50"
2024-05-28_13-34-26.301244,"53.74,71.90"
2024-05-28_13-34-26.334015,"77.48,67.19"
2024-05-28_13-34-26.366827,"76.07,76.02"
2024-05-28_13-34-26.395420,"61.40,93.69"
2024-05-28_13-34-26.428157,"88.80,74.66"
2024-05-28_13-34-26.460953,"75.97,60.32"
2024-05-28_13-34-26.497569,"97.21,47.63"
2024-05-28_13-34-26.527288,"51.99,64.50"
2024-05-28_13-34-26.559257,"65.63,60.44"
2024-05-28_13-34-26.592000,"52.76,64.40"
2024-05-28_13-34-26.620995,"55.47,71.02"
2024-05-28_13-34-26.653474,"60.80,65.88"
2024-05-28_13-34-26.686357,"58.62,78.58"
2024-05-28_13-34-26.719052,"52.52,75.73"
