timestamp,EMG
2024-05-28_16-41-09.050347,"85.83,26.80"
2024-05-28_16-41-09.083178,"54.94,69.62"
2024-05-28_16-41-09.115972,"49.26,72.65"
2024-05-28_16-41-09.148669,"43.51,66.01"
2024-05-28_16-41-09.181430,"39.75,74.63"
2024-05-28_16-41-09.214218,"40.19,67.23"
2024-05-28_16-41-09.246869,"40.28,66.54"
2024-05-28_16-41-09.278869,"40.52,66.81"
2024-05-28_16-41-09.312459,"43.33,66.22"
2024-05-28_16-41-09.341188,"39.28,74.52"
2024-05-28_16-41-09.373973,"39.78,67.32"
2024-05-28_16-41-09.406715,"40.96,60.19"
2024-05-28_16-41-09.439454,"76.38,77.81"
2024-05-28_16-41-09.472189,"36.05,64.30"
2024-05-28_16-41-09.504893,"13.47,26.91"
2024-05-28_16-41-09.533694,"11.63,64.24"
2024-05-28_16-41-09.566474,"14.29,77.26"
2024-05-28_16-41-09.599264,"13.84,81.43"
2024-05-28_16-41-09.632064,"56.66,85.10"
2024-05-28_16-41-09.664804,"20.07,76.65"
2024-05-28_16-41-09.697450,"44.20,59.64"
2024-05-28_16-41-09.730116,"60.22,61.19"
2024-05-28_16-41-09.758995,"55.38,68.12"
2024-05-28_16-41-09.791865,"9.75,65.02"
2024-05-28_16-41-09.824524,"6.73,68.19"
2024-05-28_16-41-09.857294,"8.09,64.34"
2024-05-28_16-41-09.890302,"9.11,70.69"
2024-05-28_16-41-09.922777,"27.40,68.49"
2024-05-28_16-41-09.955693,"65.33,61.68"
2024-05-28_16-41-09.984316,"74.05,48.02"
2024-05-28_16-41-10.017081,"58.17,68.44"
2024-05-28_16-41-10.049965,"72.12,76.81"
2024-05-28_16-41-10.082625,"50.50,66.51"
2024-05-28_16-41-10.115363,"39.02,79.23"
2024-05-28_16-41-10.148121,"84.95,81.08"
2024-05-28_16-41-10.180753,"75.68,74.39"
2024-05-28_16-41-10.209707,"78.31,73.09"
2024-05-28_16-41-10.242458,"46.03,76.54"
2024-05-28_16-41-10.275112,"53.56,92.67"
2024-05-28_16-41-10.307921,"54.12,60.47"
2024-05-28_16-41-10.340622,"64.69,59.91"
2024-05-28_16-41-10.373389,"53.83,68.42"
2024-05-28_16-41-10.406122,"53.20,76.64"
2024-05-28_16-41-10.434893,"62.45,76.57"
2024-05-28_16-41-10.467707,"85.79,68.80"
2024-05-28_16-41-10.500410,"71.70,68.59"
2024-05-28_16-41-10.533230,"63.93,69.07"
2024-05-28_16-41-10.565976,"44.04,81.70"
2024-05-28_16-41-10.598694,"51.23,75.99"
2024-05-28_16-41-10.631358,"60.65,71.57"
2024-05-28_16-41-10.660300,"55.71,72.92"
2024-05-28_16-41-10.693131,"53.58,65.80"
2024-05-28_16-41-10.725849,"54.40,76.38"
2024-05-28_16-41-10.758609,"84.81,75.13"
2024-05-28_16-41-10.791259,"75.78,65.68"
2024-05-28_16-41-10.823983,"71.05,67.00"
2024-05-28_16-41-10.856780,"63.19,73.42"
2024-05-28_16-41-10.885539,"42.66,72.06"
2024-05-28_16-41-10.918278,"55.96,73.29"
2024-05-28_16-41-10.950999,"53.61,79.91"
2024-05-28_16-41-10.983776,"54.45,83.38"
2024-05-28_16-41-11.016567,"53.78,64.62"
2024-05-28_16-41-11.049259,"56.11,63.91"
2024-05-28_16-41-11.081939,"77.50,76.88"
2024-05-28_16-41-11.110846,"89.38,72.56"
2024-05-28_16-41-11.143681,"69.39,75.07"
2024-05-28_16-41-11.176412,"60.32,64.28"
2024-05-28_16-41-11.209379,"63.89,68.85"
2024-05-28_16-41-11.247937,"43.98,68.97"
2024-05-28_16-41-11.274615,"52.27,76.41"
2024-05-28_16-41-11.307263,"53.48,81.54"
2024-05-28_16-41-11.336991,"56.03,73.82"
2024-05-28_16-41-11.368882,"62.67,70.16"
2024-05-28_16-41-11.401626,"55.12,55.62"
2024-05-28_16-41-11.434365,"46.66,76.81"
2024-05-28_16-41-11.467119,"44.89,80.93"
2024-05-28_16-41-11.499845,"58.42,67.33"
2024-05-28_16-41-11.532568,"75.30,66.56"
2024-05-28_16-41-11.561360,"41.21,68.72"
2024-05-28_16-41-11.594125,"49.07,81.13"
2024-05-28_16-41-11.626912,"48.58,78.66"
2024-05-28_16-41-11.659883,"61.14,69.48"
2024-05-28_16-41-11.692503,"54.73,70.99"
2024-05-28_16-41-11.725153,"56.38,58.38"
2024-05-28_16-41-11.757842,"50.77,85.37"
2024-05-28_16-41-11.787000,"49.00,72.45"
2024-05-28_16-41-11.819470,"63.74,72.39"
2024-05-28_16-41-11.852226,"60.21,66.29"
2024-05-28_16-41-11.884963,"38.34,75.79"
2024-05-28_16-41-11.917771,"47.22,65.89"
2024-05-28_16-41-11.950446,"55.45,73.05"
2024-05-28_16-41-11.983110,"34.18,71.35"
2024-05-28_16-41-12.011978,"69.02,26.17"
2024-05-28_16-41-12.044688,"84.71,27.94"
2024-05-28_16-41-12.077531,"56.84,68.06"
2024-05-28_16-41-12.110250,"69.93,32.71"
2024-05-28_16-41-12.143188,"95.61,27.93"
2024-05-28_16-41-12.175776,"33.16,57.19"
2024-05-28_16-41-12.208533,"18.57,84.39"
2024-05-28_16-41-12.237417,"76.32,27.74"
2024-05-28_16-41-12.270006,"95.10,26.72"
2024-05-28_16-41-12.302802,"73.39,73.58"
2024-05-28_16-41-12.335566,"84.29,28.61"
2024-05-28_16-41-12.368379,"84.42,25.47"
2024-05-28_16-41-12.401036,"59.23,84.42"
2024-05-28_16-41-12.433753,"76.09,36.43"
2024-05-28_16-41-12.462539,"67.68,39.48"
2024-05-28_16-41-12.495341,"66.78,39.79"
2024-05-28_16-41-12.528053,"45.48,86.54"
2024-05-28_16-41-12.560875,"31.74,55.43"
2024-05-28_16-41-12.593635,"67.17,64.83"
2024-05-28_16-41-12.626329,"72.01,91.05"
2024-05-28_16-41-12.659196,"77.38,102.55"
2024-05-28_16-41-12.687859,"70.00,103.95"
2024-05-28_16-41-12.720654,"84.36,62.04"
2024-05-28_16-41-12.753366,"67.54,39.68"
2024-05-28_16-41-12.786153,"48.78,59.02"
2024-05-28_16-41-12.818926,"40.16,66.82"
2024-05-28_16-41-12.851735,"43.04,66.00"
2024-05-28_16-41-12.884375,"39.80,74.44"
2024-05-28_16-41-12.913146,"42.55,66.85"
2024-05-28_16-41-12.947440,"41.79,75.78"
2024-05-28_16-41-12.978679,"43.04,66.90"
2024-05-28_16-41-13.011600,"39.44,74.35"
2024-05-28_16-41-13.044180,"39.72,67.13"
2024-05-28_16-41-13.077011,"40.59,66.49"
2024-05-28_16-41-13.109621,"40.00,66.88"
2024-05-28_16-41-13.138403,"42.79,66.13"
2024-05-28_16-41-13.171219,"39.32,74.41"
2024-05-28_16-41-13.203990,"39.72,67.15"
2024-05-28_16-41-13.237079,"40.29,66.45"
2024-05-28_16-41-13.269523,"59.16,50.55"
2024-05-28_16-41-13.302286,"91.99,21.94"
2024-05-28_16-41-13.334941,"86.94,27.36"
2024-05-28_16-41-13.363745,"84.17,25.46"
2024-05-28_16-41-13.396509,"69.38,70.36"
2024-05-28_16-41-13.429255,"61.93,66.14"
2024-05-28_16-41-13.462249,"39.62,74.51"
2024-05-28_16-41-13.494765,"39.76,66.91"
2024-05-28_16-41-13.527820,"44.96,68.27"
2024-05-28_16-41-13.560616,"77.72,70.11"
2024-05-28_16-41-13.592953,"75.47,85.76"
2024-05-28_16-41-13.621785,"42.42,63.64"
2024-05-28_16-41-13.654572,"39.13,56.48"
2024-05-28_16-41-13.687488,"82.67,26.11"
2024-05-28_16-41-13.720175,"84.50,30.14"
2024-05-28_16-41-13.752875,"86.23,49.51"
2024-05-28_16-41-13.785582,"66.87,48.14"
2024-05-28_16-41-13.818276,"58.81,61.29"
2024-05-28_16-41-13.847131,"31.53,54.55"
2024-05-28_16-41-13.879867,"67.44,52.11"
2024-05-28_16-41-13.912698,"90.20,19.70"
2024-05-28_16-41-13.945361,"70.35,12.69"
2024-05-28_16-41-13.978162,"84.83,26.10"
2024-05-28_16-41-14.011034,"84.52,30.14"
2024-05-28_16-41-14.043663,"95.27,26.10"
2024-05-28_16-41-14.072359,"86.78,26.72"
2024-05-28_16-41-14.105188,"20.76,56.95"
2024-05-28_16-41-14.137851,"54.93,74.87"
2024-05-28_16-41-14.170698,"49.43,80.89"
2024-05-28_16-41-14.203511,"85.25,48.84"
2024-05-28_16-41-14.236173,"76.78,51.03"
2024-05-28_16-41-14.269198,"72.50,73.94"
2024-05-28_16-41-14.297660,"58.58,69.06"
2024-05-28_16-41-14.330441,"39.68,74.49"
2024-05-28_16-41-14.363225,"39.82,67.16"
2024-05-28_16-41-14.396529,"61.68,65.53"
2024-05-28_16-41-14.428762,"70.26,23.67"
2024-05-28_16-41-14.461647,"84.52,30.70"
2024-05-28_16-41-14.494149,"95.16,26.10"
2024-05-28_16-41-14.522947,"86.78,25.46"
2024-05-28_16-41-14.555776,"84.70,26.10"
2024-05-28_16-41-14.588474,"55.18,69.57"
2024-05-28_16-41-14.621326,"76.90,50.63"
2024-05-28_16-41-14.654077,"47.91,76.39"
2024-05-28_16-41-14.687561,"63.41,80.96"
2024-05-28_16-41-14.719509,"46.40,40.67"
2024-05-28_16-41-14.748265,"13.67,36.17"
2024-05-28_16-41-14.781028,"20.64,40.82"
2024-05-28_16-41-14.813816,"78.55,46.05"
2024-05-28_16-41-14.846583,"60.44,42.64"
2024-05-28_16-41-14.879601,"36.97,45.16"
2024-05-28_16-41-14.912466,"55.81,56.96"
2024-05-28_16-41-14.944766,"64.67,55.37"
2024-05-28_16-41-14.973522,"20.86,39.35"
2024-05-28_16-41-15.006317,"14.47,31.97"
2024-05-28_16-41-15.039077,"12.79,31.09"
2024-05-28_16-41-15.071849,"11.55,41.48"
2024-05-28_16-41-15.104667,"14.97,71.09"
2024-05-28_16-41-15.137340,"9.59,65.79"
2024-05-28_16-41-15.170085,"11.11,69.95"
2024-05-28_16-41-15.198864,"10.55,72.87"
2024-05-28_16-41-15.231613,"7.30,64.90"
2024-05-28_16-41-15.264432,"5.00,58.37"
2024-05-28_16-41-15.297119,"28.32,35.54"
2024-05-28_16-41-15.329952,"12.06,35.20"
2024-05-28_16-41-15.362799,"12.58,38.48"
2024-05-28_16-41-15.395340,"18.71,40.77"
2024-05-28_16-41-15.424162,"23.13,46.54"
2024-05-28_16-41-15.456973,"19.80,37.97"
2024-05-28_16-41-15.489648,"14.10,35.08"
2024-05-28_16-41-15.522481,"13.48,38.86"
2024-05-28_16-41-15.555230,"15.11,36.81"
2024-05-28_16-41-15.588090,"13.73,34.40"
2024-05-28_16-41-15.620676,"13.84,32.12"
2024-05-28_16-41-15.649464,"44.60,40.82"
2024-05-28_16-41-15.682212,"12.18,34.96"
2024-05-28_16-41-15.714993,"7.60,39.32"
2024-05-28_16-41-15.747737,"10.42,41.34"
2024-05-28_16-41-15.780448,"8.82,38.63"
2024-05-28_16-41-15.813325,"9.27,41.60"
2024-05-28_16-41-15.845956,"10.30,37.85"
2024-05-28_16-41-15.874748,"8.41,37.45"
2024-05-28_16-41-15.910138,"11.55,36.94"
2024-05-28_16-41-15.940768,"12.57,36.42"
2024-05-28_16-41-15.973099,"12.98,37.98"
2024-05-28_16-41-16.005837,"45.35,35.95"
2024-05-28_16-41-16.038532,"61.93,32.25"
2024-05-28_16-41-16.071303,"59.69,41.01"
2024-05-28_16-41-16.100063,"16.40,39.63"
2024-05-28_16-41-16.132795,"15.11,35.44"
2024-05-28_16-41-16.165624,"13.33,34.41"
2024-05-28_16-41-16.198444,"15.07,33.89"
2024-05-28_16-41-16.231092,"14.06,32.75"
2024-05-28_16-41-16.263851,"13.70,35.78"
2024-05-28_16-41-16.296634,"14.86,33.46"
2024-05-28_16-41-16.325364,"82.45,30.01"
2024-05-28_16-41-16.358118,"89.76,22.80"
2024-05-28_16-41-16.390832,"69.05,29.21"
2024-05-28_16-41-16.423684,"45.66,32.57"
2024-05-28_16-41-16.456477,"13.55,33.29"
2024-05-28_16-41-16.489159,"14.19,32.73"
2024-05-28_16-41-16.521881,"12.98,33.21"
2024-05-28_16-41-16.550618,"13.81,36.48"
2024-05-28_16-41-16.583396,"14.38,34.80"
2024-05-28_16-41-16.616202,"14.11,34.50"
2024-05-28_16-41-16.648966,"15.36,33.66"
2024-05-28_16-41-16.681709,"76.10,30.74"
2024-05-28_16-41-16.714472,"92.67,26.58"
2024-05-28_16-41-16.747147,"52.73,30.61"
2024-05-28_16-41-16.775904,"53.14,32.04"
2024-05-28_16-41-16.808703,"13.40,34.48"
2024-05-28_16-41-16.841589,"12.98,36.51"
2024-05-28_16-41-16.874229,"14.80,34.78"
2024-05-28_16-41-16.907048,"13.72,34.28"
2024-05-28_16-41-16.939740,"47.66,31.56"
2024-05-28_16-41-16.972435,"61.84,42.14"
2024-05-28_16-41-17.001233,"46.03,40.90"
2024-05-28_16-41-17.033980,"10.32,36.88"
2024-05-28_16-41-17.066764,"14.12,35.10"
2024-05-28_16-41-17.099578,"12.97,33.87"
2024-05-28_16-41-17.132357,"13.31,36.89"
2024-05-28_16-41-17.165104,"20.82,44.93"
2024-05-28_16-41-17.197742,"30.29,50.83"
2024-05-28_16-41-17.226557,"24.36,41.02"
2024-05-28_16-41-17.259473,"15.88,36.76"
2024-05-28_16-41-17.292017,"16.34,38.71"
2024-05-28_16-41-17.324858,"50.77,44.20"
2024-05-28_16-41-17.357623,"66.75,47.25"
2024-05-28_16-41-17.390302,"20.17,37.68"
2024-05-28_16-41-17.423039,"14.45,39.35"
2024-05-28_16-41-17.451847,"15.74,37.03"
2024-05-28_16-41-17.484592,"12.93,39.11"
2024-05-28_16-41-17.517390,"16.53,37.08"
2024-05-28_16-41-17.550168,"16.29,39.73"
2024-05-28_16-41-17.582900,"23.34,46.23"
2024-05-28_16-41-17.615707,"25.74,57.55"
2024-05-28_16-41-17.648300,"22.90,58.53"
2024-05-28_16-41-17.681046,"25.01,57.14"
2024-05-28_16-41-17.710038,"57.71,62.47"
2024-05-28_16-41-17.742607,"59.77,67.04"
2024-05-28_16-41-17.775447,"47.33,72.17"
2024-05-28_16-41-17.808220,"39.74,52.97"
2024-05-28_16-41-17.840950,"48.15,63.47"
2024-05-28_16-41-17.873678,"26.80,49.02"
2024-05-28_16-41-17.906382,"20.11,48.46"
2024-05-28_16-41-17.935204,"20.12,49.48"
2024-05-28_16-41-17.967963,"47.81,68.57"
2024-05-28_16-41-18.000831,"91.65,70.88"
2024-05-28_16-41-18.033532,"52.78,77.73"
2024-05-28_16-41-18.066275,"48.29,79.17"
2024-05-28_16-41-18.099071,"52.05,73.91"
2024-05-28_16-41-18.131623,"55.23,67.05"
2024-05-28_16-41-18.160589,"50.01,69.76"
2024-05-28_16-41-18.193198,"51.00,70.08"
2024-05-28_16-41-18.226005,"51.94,81.23"
2024-05-28_16-41-18.258808,"59.01,71.11"
2024-05-28_16-41-18.291612,"70.54,75.50"
2024-05-28_16-41-18.324306,"55.75,62.14"
2024-05-28_16-41-18.356958,"65.36,73.98"
2024-05-28_16-41-18.385753,"73.74,53.94"
2024-05-28_16-41-18.418582,"81.28,71.75"
2024-05-28_16-41-18.451311,"68.99,51.92"
2024-05-28_16-41-18.484087,"40.29,60.98"
2024-05-28_16-41-18.516897,"27.33,45.94"
2024-05-28_16-41-18.549525,"49.52,38.44"
2024-05-28_16-41-18.582272,"59.91,46.49"
2024-05-28_16-41-18.611246,"45.43,45.56"
2024-05-28_16-41-18.643894,"49.22,42.13"
2024-05-28_16-41-18.676608,"62.01,52.68"
2024-05-28_16-41-18.709537,"73.33,37.85"
2024-05-28_16-41-18.742099,"46.56,46.80"
2024-05-28_16-41-18.774891,"14.40,41.40"
2024-05-28_16-41-18.807592,"74.95,32.36"
2024-05-28_16-41-18.836364,"46.46,40.41"
2024-05-28_16-41-18.869149,"46.21,40.66"
2024-05-28_16-41-18.901928,"12.94,39.39"
2024-05-28_16-41-18.934677,"31.10,38.26"
2024-05-28_16-41-18.967496,"68.80,45.16"
2024-05-28_16-41-19.000182,"56.90,38.20"
2024-05-28_16-41-19.032926,"81.24,27.85"
2024-05-28_16-41-19.061741,"77.24,32.89"
2024-05-28_16-41-19.094386,"80.63,31.16"
2024-05-28_16-41-19.127226,"85.95,33.37"
2024-05-28_16-41-19.159969,"44.62,41.10"
2024-05-28_16-41-19.192746,"36.22,28.97"
2024-05-28_16-41-19.225483,"17.16,12.15"
2024-05-28_16-41-19.258170,"25.21,13.74"
2024-05-28_16-41-19.287142,"59.91,25.08"
2024-05-28_16-41-19.319743,"22.39,10.76"
2024-05-28_16-41-19.352510,"17.58,5.50"
2024-05-28_16-41-19.385251,"15.26,11.58"
2024-05-28_16-41-19.418047,"8.23,6.73"
2024-05-28_16-41-19.450816,"8.96,0.00"
2024-05-28_16-41-19.483489,"36.96,8.09"
2024-05-28_16-41-19.512328,"42.54,17.85"
2024-05-28_16-41-19.545015,"11.76,21.16"
2024-05-28_16-41-19.577783,"13.34,17.70"
2024-05-28_16-41-19.610751,"21.55,16.02"
2024-05-28_16-41-19.643349,"62.37,34.32"
2024-05-28_16-41-19.676048,"49.59,43.27"
2024-05-28_16-41-19.708777,"43.47,50.03"
2024-05-28_16-41-19.737534,"11.03,32.23"
2024-05-28_16-41-19.770359,"11.61,29.64"
2024-05-28_16-41-19.803107,"19.34,50.33"
2024-05-28_16-41-19.835810,"79.94,90.53"
2024-05-28_16-41-19.868659,"40.44,52.33"
2024-05-28_16-41-19.901348,"24.13,37.15"
2024-05-28_16-41-19.934033,"15.99,35.81"
2024-05-28_16-41-19.962994,"23.53,46.96"
2024-05-28_16-41-19.995684,"21.74,40.21"
2024-05-28_16-41-20.028357,"23.80,55.19"
2024-05-28_16-41-20.061151,"66.12,70.36"
2024-05-28_16-41-20.094015,"68.23,61.90"
2024-05-28_16-41-20.126639,"66.69,65.34"
2024-05-28_16-41-20.159326,"69.34,10.64"
2024-05-28_16-41-20.188148,"84.58,31.23"
2024-05-28_16-41-20.220929,"95.16,27.33"
2024-05-28_16-41-20.253688,"86.71,26.10"
2024-05-28_16-41-20.286449,"84.37,26.72"
2024-05-28_16-41-20.319266,"84.37,26.10"
2024-05-28_16-41-20.352010,"84.37,29.59"
2024-05-28_16-41-20.384613,"95.27,26.72"
2024-05-28_16-41-20.413557,"86.77,26.72"
2024-05-28_16-41-20.446160,"54.07,20.71"
2024-05-28_16-41-20.479019,"13.10,81.26"
2024-05-28_16-41-20.511824,"30.68,95.10"
2024-05-28_16-41-20.546420,"52.48,58.12"
2024-05-28_16-41-20.577284,"83.87,24.82"
2024-05-28_16-41-20.609931,"84.37,26.10"
2024-05-28_16-41-20.638707,"84.24,30.68"
2024-05-28_16-41-20.671507,"95.35,27.33"
2024-05-28_16-41-20.704262,"86.71,27.33"
2024-05-28_16-41-20.737037,"84.24,27.33"
2024-05-28_16-41-20.769860,"84.37,27.33"
2024-05-28_16-41-20.802604,"52.68,62.72"
2024-05-28_16-41-20.835239,"27.29,86.47"
2024-05-28_16-41-20.864048,"27.33,83.92"
2024-05-28_16-41-20.896850,"60.76,51.00"
2024-05-28_16-41-20.929573,"84.96,30.14"
2024-05-28_16-41-20.962471,"95.34,26.10"
2024-05-28_16-41-20.995093,"86.58,25.46"
2024-05-28_16-41-21.027893,"84.25,27.33"
2024-05-28_16-41-21.060719,"84.37,26.10"
2024-05-28_16-41-21.093255,"84.31,30.68"
2024-05-28_16-41-21.122102,"95.28,26.10"
2024-05-28_16-41-21.154890,"74.19,23.01"
2024-05-28_16-41-21.188529,"20.38,76.21"
2024-05-28_16-41-21.220443,"52.94,70.62"
2024-05-28_16-41-21.253160,"72.15,53.75"
2024-05-28_16-41-21.285861,"77.82,51.46"
2024-05-28_16-41-21.318564,"96.86,61.09"
2024-05-28_16-41-21.347499,"76.35,66.00"
2024-05-28_16-41-21.380163,"83.74,73.94"
2024-05-28_16-41-21.413071,"79.73,70.59"
2024-05-28_16-41-21.445687,"67.05,64.95"
2024-05-28_16-41-21.478474,"50.43,66.93"
2024-05-28_16-41-21.511447,"77.47,68.49"
2024-05-28_16-41-21.543828,"79.09,70.49"
2024-05-28_16-41-21.572726,"109.42,89.18"
2024-05-28_16-41-21.605507,"62.47,71.68"
2024-05-28_16-41-21.638377,"77.55,53.90"
2024-05-28_16-41-21.671056,"84.16,65.92"
2024-05-28_16-41-21.703785,"53.62,62.78"
2024-05-28_16-41-21.736448,"48.08,55.35"
2024-05-28_16-41-21.769221,"40.84,67.73"
2024-05-28_16-41-21.798047,"40.67,66.68"
2024-05-28_16-41-21.830778,"43.28,66.27"
2024-05-28_16-41-21.863647,"35.25,75.97"
2024-05-28_16-41-21.896318,"83.31,74.94"
2024-05-28_16-41-21.929151,"79.84,79.80"
2024-05-28_16-41-21.961912,"88.17,71.36"
2024-05-28_16-41-21.994510,"97.05,71.13"
2024-05-28_16-41-22.023291,"65.44,68.03"
2024-05-28_16-41-22.056062,"72.94,81.73"
2024-05-28_16-41-22.089018,"84.02,78.02"
2024-05-28_16-41-22.121648,"69.59,85.34"
2024-05-28_16-41-22.154360,"63.59,80.76"
2024-05-28_16-41-22.187107,"80.89,61.19"
2024-05-28_16-41-22.219749,"42.49,63.54"
2024-05-28_16-41-22.248534,"69.00,75.44"
2024-05-28_16-41-22.281356,"96.69,71.24"
2024-05-28_16-41-22.314265,"108.59,57.42"
2024-05-28_16-41-22.346872,"92.77,74.87"
2024-05-28_16-41-22.379660,"68.54,67.77"
2024-05-28_16-41-22.412564,"45.01,59.91"
2024-05-28_16-41-22.445416,"38.39,74.41"
2024-05-28_16-41-22.473924,"43.89,75.78"
2024-05-28_16-41-22.506645,"40.44,67.91"
2024-05-28_16-41-22.539425,"40.46,66.88"
2024-05-28_16-41-22.572234,"54.68,71.44"
2024-05-28_16-41-22.604973,"59.54,84.95"
2024-05-28_16-41-22.637676,"74.86,52.65"
2024-05-28_16-41-22.670389,"71.32,65.64"
2024-05-28_16-41-22.700282,"77.60,57.51"
2024-05-28_16-41-22.731973,"44.86,73.71"
2024-05-28_16-41-22.764778,"56.11,61.77"
2024-05-28_16-41-22.797488,"69.81,91.56"
2024-05-28_16-41-22.830244,"62.43,92.40"
2024-05-28_16-41-22.863193,"53.57,66.99"
2024-05-28_16-41-22.895675,"80.10,80.13"
2024-05-28_16-41-22.924449,"103.39,92.75"
2024-05-28_16-41-22.957244,"77.00,84.21"
2024-05-28_16-41-22.989979,"68.69,74.70"
2024-05-28_16-41-23.022821,"62.72,78.85"
2024-05-28_16-41-23.055568,"74.59,60.97"
2024-05-28_16-41-23.088693,"89.56,75.41"
2024-05-28_16-41-23.120959,"56.92,78.61"
2024-05-28_16-41-23.149762,"88.77,107.18"
2024-05-28_16-41-23.182543,"67.58,77.03"
2024-05-28_16-41-23.215304,"103.21,68.20"
2024-05-28_16-41-23.248218,"86.61,82.99"
2024-05-28_16-41-23.280854,"100.56,91.82"
2024-05-28_16-41-23.313674,"73.16,69.47"
2024-05-28_16-41-23.346262,"81.65,61.57"
2024-05-28_16-41-23.375074,"71.59,59.49"
2024-05-28_16-41-23.407872,"73.63,76.33"
2024-05-28_16-41-23.440571,"87.74,75.49"
2024-05-28_16-41-23.473379,"80.36,74.88"
2024-05-28_16-41-23.506170,"60.27,65.87"
2024-05-28_16-41-23.538919,"38.54,65.47"
2024-05-28_16-41-23.571585,"40.98,66.98"
2024-05-28_16-41-23.600405,"42.79,66.14"
2024-05-28_16-41-23.633172,"39.75,74.38"
2024-05-28_16-41-23.665974,"82.15,70.59"
2024-05-28_16-41-23.698679,"86.21,83.57"
2024-05-28_16-41-23.731467,"75.63,76.70"
2024-05-28_16-41-23.764204,"54.38,74.88"
2024-05-28_16-41-23.796897,"90.10,31.89"
2024-05-28_16-41-23.825695,"84.64,27.95"
2024-05-28_16-41-23.858454,"85.47,26.10"
2024-05-28_16-41-23.891171,"89.77,22.07"
2024-05-28_16-41-23.924017,"95.34,25.46"
2024-05-28_16-41-23.956769,"88.94,21.31"
2024-05-28_16-41-23.989535,"61.26,65.38"
2024-05-28_16-41-24.022196,"62.48,44.07"
2024-05-28_16-41-24.050948,"61.59,47.31"
2024-05-28_16-41-24.083728,"24.65,44.49"
2024-05-28_16-41-24.116559,"25.14,45.25"
2024-05-28_16-41-24.149251,"22.07,41.64"
2024-05-28_16-41-24.182037,"21.32,40.60"
2024-05-28_16-41-24.214822,"21.68,45.88"
2024-05-28_16-41-24.247495,"19.90,50.79"
2024-05-28_16-41-24.276273,"49.69,45.01"
2024-05-28_16-41-24.308990,"97.35,44.09"
2024-05-28_16-41-24.341800,"79.47,41.72"
2024-05-28_16-41-24.374593,"58.70,42.73"
2024-05-28_16-41-24.407355,"18.60,46.78"
2024-05-28_16-41-24.440086,"18.77,30.73"
2024-05-28_16-41-24.472846,"12.56,34.36"
2024-05-28_16-41-24.501551,"9.90,38.25"
2024-05-28_16-41-24.534311,"12.49,33.20"
2024-05-28_16-41-24.567140,"12.46,35.78"
2024-05-28_16-41-24.599942,"15.65,35.60"
2024-05-28_16-41-24.632663,"65.70,39.44"
2024-05-28_16-41-24.665471,"101.41,36.42"
2024-05-28_16-41-24.698269,"71.42,41.58"
2024-05-28_16-41-24.730800,"46.95,42.99"
2024-05-28_16-41-24.759651,"24.58,41.89"
2024-05-28_16-41-24.792384,"24.72,45.07"
2024-05-28_16-41-24.825166,"21.96,44.94"
2024-05-28_16-41-24.857954,"23.56,44.82"
2024-05-28_16-41-24.890669,"20.94,41.59"
2024-05-28_16-41-24.923475,"19.06,40.53"
2024-05-28_16-41-24.956093,"20.10,41.72"
2024-05-28_16-41-24.984936,"74.88,44.43"
2024-05-28_16-41-25.017725,"91.51,36.29"
2024-05-28_16-41-25.050547,"60.86,38.63"
2024-05-28_16-41-25.096909,"47.97,43.08"
2024-05-28_16-41-25.116258,"23.06,43.99"
2024-05-28_16-41-25.148721,"20.14,44.95"
2024-05-28_16-41-25.181453,"21.36,40.52"
2024-05-28_16-41-25.210333,"21.77,41.14"
2024-05-28_16-41-25.242944,"18.85,42.46"
2024-05-28_16-41-25.275812,"66.65,41.69"
2024-05-28_16-41-25.308585,"47.63,41.34"
2024-05-28_16-41-25.341310,"106.27,37.11"
2024-05-28_16-41-25.373987,"76.83,38.14"
2024-05-28_16-41-25.406751,"67.59,37.87"
2024-05-28_16-41-25.435569,"48.20,43.46"
2024-05-28_16-41-25.468327,"19.27,42.01"
2024-05-28_16-41-25.501057,"22.69,41.24"
2024-05-28_16-41-25.533874,"22.53,43.16"
2024-05-28_16-41-25.566587,"22.12,45.39"
2024-05-28_16-41-25.599257,"19.81,42.07"
2024-05-28_16-41-25.632070,"19.17,42.18"
2024-05-28_16-41-25.660861,"17.22,39.98"
2024-05-28_16-41-25.693634,"55.84,42.16"
2024-05-28_16-41-25.726380,"82.40,44.35"
2024-05-28_16-41-25.759163,"64.52,40.32"
2024-05-28_16-41-25.792276,"51.50,45.24"
2024-05-28_16-41-25.824630,"23.34,46.57"
2024-05-28_16-41-25.857362,"26.18,45.77"
2024-05-28_16-41-25.886128,"22.17,45.54"
2024-05-28_16-41-25.918914,"24.42,42.33"
2024-05-28_16-41-25.951677,"21.06,40.92"
2024-05-28_16-41-25.984425,"55.05,45.70"
2024-05-28_16-41-26.017268,"62.09,44.47"
2024-05-28_16-41-26.049879,"79.50,42.91"
2024-05-28_16-41-26.082620,"84.39,44.73"
2024-05-28_16-41-26.111563,"70.87,42.99"
2024-05-28_16-41-26.144236,"29.43,48.41"
2024-05-28_16-41-26.176957,"25.51,47.80"
2024-05-28_16-41-26.209819,"23.76,44.38"
2024-05-28_16-41-26.242451,"26.41,43.56"
2024-05-28_16-41-26.275273,"21.83,44.62"
2024-05-28_16-41-26.307932,"21.35,47.43"
2024-05-28_16-41-26.336688,"18.70,43.80"
2024-05-28_16-41-26.369518,"29.18,42.77"
2024-05-28_16-41-26.402274,"95.60,38.66"
2024-05-28_16-41-26.435007,"80.96,42.53"
2024-05-28_16-41-26.467818,"38.72,47.22"
2024-05-28_16-41-26.500513,"27.63,42.82"
2024-05-28_16-41-26.533174,"55.96,42.43"
2024-05-28_16-41-26.562159,"49.93,43.76"
2024-05-28_16-41-26.594765,"23.29,44.99"
2024-05-28_16-41-26.627552,"20.98,47.57"
2024-05-28_16-41-26.660598,"24.33,43.16"
2024-05-28_16-41-26.693050,"59.41,48.50"
2024-05-28_16-41-26.725817,"85.38,39.77"
2024-05-28_16-41-26.758525,"43.24,48.11"
2024-05-28_16-41-26.787305,"57.15,49.84"
2024-05-28_16-41-26.820126,"31.13,47.70"
2024-05-28_16-41-26.852881,"30.09,49.38"
2024-05-28_16-41-26.885633,"27.26,49.48"
2024-05-28_16-41-26.918417,"28.57,48.27"
2024-05-28_16-41-26.951077,"25.71,44.84"
2024-05-28_16-41-26.983812,"52.12,42.80"
2024-05-28_16-41-27.012675,"62.12,44.53"
2024-05-28_16-41-27.045342,"64.47,49.33"
2024-05-28_16-41-27.078158,"84.96,48.30"
2024-05-28_16-41-27.110917,"72.90,44.41"
2024-05-28_16-41-27.143688,"83.67,48.34"
2024-05-28_16-41-27.176422,"29.67,47.48"
2024-05-28_16-41-27.209108,"24.33,46.84"
2024-05-28_16-41-27.237898,"25.78,43.68"
2024-05-28_16-41-27.270670,"26.14,42.71"
2024-05-28_16-41-27.303431,"18.79,42.43"
2024-05-28_16-41-27.336224,"19.86,43.45"
2024-05-28_16-41-27.369004,"47.66,42.83"
2024-05-28_16-41-27.401788,"98.46,36.35"
2024-05-28_16-41-27.434462,"87.52,38.58"
2024-05-28_16-41-27.479503,"38.82,42.61"
2024-05-28_16-41-27.496448,"23.51,46.31"
2024-05-28_16-41-27.528770,"20.67,41.93"
2024-05-28_16-41-27.561573,"21.09,40.00"
2024-05-28_16-41-27.594234,"19.94,42.14"
2024-05-28_16-41-27.627007,"18.24,41.99"
2024-05-28_16-41-27.659811,"17.59,40.12"
2024-05-28_16-41-27.688946,"61.88,37.86"
2024-05-28_16-41-27.721288,"20.23,38.09"
2024-05-28_16-41-27.754002,"89.59,37.34"
2024-05-28_16-41-27.786876,"74.94,39.89"
2024-05-28_16-41-27.819617,"67.62,39.88"
2024-05-28_16-41-27.852320,"49.58,41.84"
2024-05-28_16-41-27.885017,"18.71,42.70"
2024-05-28_16-41-27.913930,"22.04,40.59"
2024-05-28_16-41-27.946513,"17.00,42.42"
2024-05-28_16-41-27.979315,"73.62,30.44"
2024-05-28_16-41-28.012353,"24.14,39.59"
2024-05-28_16-41-28.044834,"47.27,39.45"
2024-05-28_16-41-28.077639,"82.59,40.17"
2024-05-28_16-41-28.110332,"16.21,41.37"
2024-05-28_16-41-28.139402,"24.68,39.70"
2024-05-28_16-41-28.171952,"57.63,45.47"
2024-05-28_16-41-28.204637,"19.78,42.45"
2024-05-28_16-41-28.237393,"22.06,44.91"
2024-05-28_16-41-28.270168,"20.00,40.79"
2024-05-28_16-41-28.303036,"18.98,40.08"
2024-05-28_16-41-28.335642,"18.40,42.02"
2024-05-28_16-41-28.364599,"16.05,43.67"
2024-05-28_16-41-28.397157,"52.01,39.54"
2024-05-28_16-41-28.429954,"68.31,43.12"
2024-05-28_16-41-28.462799,"18.16,48.62"
2024-05-28_16-41-28.495495,"25.34,44.98"
2024-05-28_16-41-28.528236,"20.07,45.93"
2024-05-28_16-41-28.560953,"24.02,41.07"
2024-05-28_16-41-28.593719,"23.59,41.70"
2024-05-28_16-41-28.622505,"20.38,42.33"
2024-05-28_16-41-28.655243,"22.56,43.96"
2024-05-28_16-41-28.688029,"15.09,41.49"
2024-05-28_16-41-28.720779,"18.44,39.85"
2024-05-28_16-41-28.753534,"50.37,44.34"
2024-05-28_16-41-28.786219,"18.93,48.34"
2024-05-28_16-41-28.818963,"24.31,48.85"
2024-05-28_16-41-28.847759,"22.20,46.36"
2024-05-28_16-41-28.880554,"28.79,47.10"
2024-05-28_16-41-28.913400,"25.83,46.56"
2024-05-28_16-41-28.946076,"26.17,45.98"
2024-05-28_16-41-28.978838,"19.48,40.54"
2024-05-28_16-41-29.011518,"21.66,42.28"
2024-05-28_16-41-29.044225,"19.27,41.18"
2024-05-28_16-41-29.073104,"16.99,44.18"
2024-05-28_16-41-29.105842,"17.63,45.42"
2024-05-28_16-41-29.139284,"100.06,38.02"
2024-05-28_16-41-29.171389,"74.37,42.24"
2024-05-28_16-41-29.204190,"72.99,40.70"
2024-05-28_16-41-29.236844,"24.42,45.18"
2024-05-28_16-41-29.269575,"24.39,46.09"
2024-05-28_16-41-29.298335,"36.83,41.65"
2024-05-28_16-41-29.331243,"54.21,47.67"
2024-05-28_16-41-29.364036,"22.75,44.01"
2024-05-28_16-41-29.396663,"20.74,47.80"
2024-05-28_16-41-29.429440,"16.89,45.04"
2024-05-28_16-41-29.462380,"20.07,42.80"
2024-05-28_16-41-29.494852,"49.88,42.61"
2024-05-28_16-41-29.523677,"70.64,54.62"
2024-05-28_16-41-29.556416,"77.32,52.80"
2024-05-28_16-41-29.589333,"46.28,45.50"
2024-05-28_16-41-29.621978,"50.09,35.60"
2024-05-28_16-41-29.654759,"55.31,45.59"
2024-05-28_16-41-29.687428,"12.68,35.65"
2024-05-28_16-41-29.720165,"10.17,37.79"
2024-05-28_16-41-29.748945,"48.07,34.65"
2024-05-28_16-41-29.781731,"29.10,27.41"
2024-05-28_16-41-29.814618,"14.46,31.82"
2024-05-28_16-41-29.847257,"12.57,32.32"
2024-05-28_16-41-29.880304,"14.09,33.83"
2024-05-28_16-41-29.912869,"12.27,36.49"
2024-05-28_16-41-29.945490,"13.07,38.41"
2024-05-28_16-41-29.974253,"13.61,37.16"
2024-05-28_16-41-30.007025,"10.54,38.37"
2024-05-28_16-41-30.039712,"9.98,37.58"
2024-05-28_16-41-30.072553,"10.43,38.38"
2024-05-28_16-41-30.105346,"64.19,27.88"
2024-05-28_16-41-30.138892,"14.24,30.47"
2024-05-28_16-41-30.170784,"13.29,31.48"
2024-05-28_16-41-30.199577,"13.29,31.88"
2024-05-28_16-41-30.232294,"12.35,36.94"
2024-05-28_16-41-30.265105,"13.59,34.66"
2024-05-28_16-41-30.297843,"11.35,35.30"
2024-05-28_16-41-30.330616,"12.86,35.49"
2024-05-28_16-41-30.363520,"10.69,38.37"
2024-05-28_16-41-30.396020,"10.41,42.49"
2024-05-28_16-41-30.424862,"11.39,37.98"
2024-05-28_16-41-30.457633,"7.81,32.12"
2024-05-28_16-41-30.490336,"68.47,42.34"
2024-05-28_16-41-30.523255,"60.51,39.22"
2024-05-28_16-41-30.555984,"74.91,55.86"
2024-05-28_16-41-30.588671,"84.18,74.60"
2024-05-28_16-41-30.621371,"76.08,62.33"
2024-05-28_16-41-30.650194,"66.84,52.81"
2024-05-28_16-41-30.682939,"81.92,32.27"
2024-05-28_16-41-30.715694,"73.91,49.47"
2024-05-28_16-41-30.748426,"20.45,63.50"
2024-05-28_16-41-30.781284,"23.15,54.23"
2024-05-28_16-41-30.814191,"85.55,70.08"
2024-05-28_16-41-30.846671,"63.77,71.06"
2024-05-28_16-41-30.875455,"47.35,62.85"
2024-05-28_16-41-30.908305,"74.46,53.88"
2024-05-28_16-41-30.940952,"40.30,66.45"
2024-05-28_16-41-30.973856,"39.45,74.37"
2024-05-28_16-41-31.006563,"40.61,67.11"
2024-05-28_16-41-31.039352,"40.35,66.49"
2024-05-28_16-41-31.071995,"40.04,66.76"
2024-05-28_16-41-31.100726,"29.64,74.75"
2024-05-28_16-41-31.133517,"75.67,44.06"
2024-05-28_16-41-31.166362,"72.17,80.36"
2024-05-28_16-41-31.199143,"51.62,96.01"
2024-05-28_16-41-31.231894,"57.47,61.46"
2024-05-28_16-41-31.264710,"21.86,38.59"
2024-05-28_16-41-31.297257,"16.01,35.03"
2024-05-28_16-41-31.326079,"13.04,45.79"
2024-05-28_16-41-31.358844,"12.01,48.92"
2024-05-28_16-41-31.391530,"30.94,52.86"
2024-05-28_16-41-31.424429,"64.50,43.52"
2024-05-28_16-41-31.457141,"5.75,34.68"
2024-05-28_16-41-31.489844,"10.84,60.47"
2024-05-28_16-41-31.522580,"49.09,46.68"
2024-05-28_16-41-31.551403,"10.40,43.84"
2024-05-28_16-41-31.584111,"65.96,59.14"
2024-05-28_16-41-31.616877,"64.60,68.42"
2024-05-28_16-41-31.649684,"77.14,71.58"
2024-05-28_16-41-31.682421,"80.47,72.62"
2024-05-28_16-41-31.715269,"53.66,71.46"
2024-05-28_16-41-31.747856,"43.93,61.77"
2024-05-28_16-41-31.776666,"44.59,62.86"
2024-05-28_16-41-31.809426,"54.99,59.68"
2024-05-28_16-41-31.842148,"65.30,68.49"
2024-05-28_16-41-31.874974,"51.30,59.68"
2024-05-28_16-41-31.907760,"60.47,60.46"
2024-05-28_16-41-31.940445,"52.12,59.88"
2024-05-28_16-41-31.973194,"67.71,64.18"
2024-05-28_16-41-32.001952,"85.04,66.37"
2024-05-28_16-41-32.034707,"93.68,70.60"
2024-05-28_16-41-32.067534,"85.37,77.77"
2024-05-28_16-41-32.100241,"67.90,68.82"
2024-05-28_16-41-32.133042,"76.47,70.18"
2024-05-28_16-41-32.165835,"71.72,76.09"
2024-05-28_16-41-32.198492,"65.03,68.33"
2024-05-28_16-41-32.239791,"87.89,66.27"
2024-05-28_16-41-32.260025,"15.55,61.31"
2024-05-28_16-41-32.292740,"65.16,61.45"
2024-05-28_16-41-32.325595,"59.82,62.98"
2024-05-28_16-41-32.358378,"68.72,64.41"
2024-05-28_16-41-32.391054,"64.62,67.35"
2024-05-28_16-41-32.423799,"51.89,72.29"
2024-05-28_16-41-32.456536,"19.24,70.97"
2024-05-28_16-41-32.485335,"46.65,57.69"
2024-05-28_16-41-32.518135,"60.73,49.28"
2024-05-28_16-41-32.550882,"64.48,60.77"
2024-05-28_16-41-32.583625,"68.50,56.16"
2024-05-28_16-41-32.616416,"35.97,55.11"
2024-05-28_16-41-32.649088,"35.98,59.46"
2024-05-28_16-41-32.681833,"42.36,55.04"
2024-05-28_16-41-32.710602,"48.58,58.40"
2024-05-28_16-41-32.749160,"44.86,60.07"
2024-05-28_16-41-32.776519,"77.66,74.85"
2024-05-28_16-41-32.809053,"76.12,83.89"
2024-05-28_16-41-32.841703,"78.79,71.98"
2024-05-28_16-41-32.874862,"81.30,63.56"
2024-05-28_16-41-32.907104,"68.00,60.22"
2024-05-28_16-41-32.936006,"34.72,59.20"
2024-05-28_16-41-32.968827,"33.92,54.75"
2024-05-28_16-41-33.001606,"44.36,53.94"
2024-05-28_16-41-33.034249,"80.58,68.01"
2024-05-28_16-41-33.067009,"63.78,82.97"
2024-05-28_16-41-33.099838,"74.26,88.81"
2024-05-28_16-41-33.132421,"39.26,56.07"
2024-05-28_16-41-33.161192,"69.18,77.20"
2024-05-28_16-41-33.193969,"47.84,40.83"
2024-05-28_16-41-33.226736,"71.61,45.67"
2024-05-28_16-41-33.259572,"10.95,47.77"
2024-05-28_16-41-33.292256,"59.02,53.31"
2024-05-28_16-41-33.325014,"12.15,68.01"
2024-05-28_16-41-33.357749,"15.99,67.79"
2024-05-28_16-41-33.386502,"45.70,70.79"
2024-05-28_16-41-33.419314,"82.07,56.63"
2024-05-28_16-41-33.452052,"27.63,47.15"
2024-05-28_16-41-33.484801,"7.60,47.90"
2024-05-28_16-41-33.517645,"9.01,41.39"
2024-05-28_16-41-33.550349,"10.78,45.51"
2024-05-28_16-41-33.582990,"10.81,45.47"
2024-05-28_16-41-33.611894,"62.45,54.14"
2024-05-28_16-41-33.644673,"75.11,52.09"
2024-05-28_16-41-33.677382,"69.51,59.24"
2024-05-28_16-41-33.710109,"71.60,62.06"
2024-05-28_16-41-33.742887,"96.64,68.37"
2024-05-28_16-41-33.775646,"68.14,78.62"
2024-05-28_16-41-33.808290,"54.94,61.66"
2024-05-28_16-41-33.837099,"14.12,60.27"
2024-05-28_16-41-33.869879,"16.44,56.44"
2024-05-28_16-41-33.902823,"75.36,66.33"
2024-05-28_16-41-33.935433,"47.01,52.27"
2024-05-28_16-41-33.969664,"61.39,62.23"
2024-05-28_16-41-34.000930,"60.89,69.32"
2024-05-28_16-41-34.033779,"0.00,52.03"
2024-05-28_16-41-34.062522,"25.24,62.98"
2024-05-28_16-41-34.095190,"36.87,54.69"
2024-05-28_16-41-34.127973,"83.69,72.58"
2024-05-28_16-41-34.160723,"34.07,67.63"
2024-05-28_16-41-34.193438,"79.70,71.13"
2024-05-28_16-41-34.226281,"53.54,57.43"
2024-05-28_16-41-34.259048,"49.92,55.47"
2024-05-28_16-41-34.287742,"50.65,69.19"
2024-05-28_16-41-34.320520,"77.74,65.89"
2024-05-28_16-41-34.353213,"15.95,76.01"
2024-05-28_16-41-34.386021,"27.59,49.60"
2024-05-28_16-41-34.418785,"39.19,59.60"
2024-05-28_16-41-34.467712,"38.71,55.79"
2024-05-28_16-41-34.487168,"47.20,56.62"
2024-05-28_16-41-34.513767,"44.16,59.55"
2024-05-28_16-41-34.545866,"93.12,60.40"
2024-05-28_16-41-34.578535,"82.33,66.18"
2024-05-28_16-41-34.611583,"59.97,55.82"
2024-05-28_16-41-34.644144,"51.02,56.08"
2024-05-28_16-41-34.676951,"32.06,54.09"
2024-05-28_16-41-34.709524,"30.78,58.65"
2024-05-28_16-41-34.738297,"38.27,54.09"
2024-05-28_16-41-34.771114,"41.62,54.28"
2024-05-28_16-41-34.803876,"64.22,73.10"
2024-05-28_16-41-34.836646,"87.34,57.01"
2024-05-28_16-41-34.869405,"84.40,52.70"
2024-05-28_16-41-34.902189,"84.99,39.50"
2024-05-28_16-41-34.934837,"76.56,35.91"
2024-05-28_16-41-34.963657,"84.38,35.96"
2024-05-28_16-41-34.996425,"83.75,43.57"
2024-05-28_16-41-35.029304,"78.29,50.35"
2024-05-28_16-41-35.061984,"49.69,57.89"
2024-05-28_16-41-35.094647,"24.63,67.62"
2024-05-28_16-41-35.127472,"24.81,67.79"
2024-05-28_16-41-35.160169,"65.15,75.86"
2024-05-28_16-41-35.192848,"73.55,60.34"
2024-05-28_16-41-35.221667,"86.24,56.50"
2024-05-28_16-41-35.254457,"82.29,40.81"
2024-05-28_16-41-35.287212,"81.24,41.04"
2024-05-28_16-41-35.320005,"80.62,35.14"
2024-05-28_16-41-35.352792,"82.70,43.40"
2024-05-28_16-41-35.385459,"46.83,54.43"
2024-05-28_16-41-35.418117,"24.84,59.25"
2024-05-28_16-41-35.446994,"23.23,68.83"
2024-05-28_16-41-35.479864,"23.66,66.90"
2024-05-28_16-41-35.512618,"25.57,66.52"
2024-05-28_16-41-35.545242,"59.70,55.76"
2024-05-28_16-41-35.578879,"81.73,53.53"
2024-05-28_16-41-35.610807,"84.65,59.78"
2024-05-28_16-41-35.643803,"36.39,61.31"
2024-05-28_16-41-35.672287,"15.97,76.67"
2024-05-28_16-41-35.705076,"18.28,75.19"
2024-05-28_16-41-35.737824,"15.33,75.62"
2024-05-28_16-41-35.770599,"15.31,74.50"
2024-05-28_16-41-35.803378,"14.58,73.83"
2024-05-28_16-41-35.836024,"13.59,79.87"
2024-05-28_16-41-35.868795,"13.64,67.51"
2024-05-28_16-41-35.897563,"9.55,69.97"
2024-05-28_16-41-35.930332,"9.26,60.07"
2024-05-28_16-41-35.963112,"9.45,70.41"
2024-05-28_16-41-35.995936,"18.01,67.16"
2024-05-28_16-41-36.028978,"16.64,74.21"
2024-05-28_16-41-36.061387,"15.14,73.57"
2024-05-28_16-41-36.094036,"16.20,76.85"
2024-05-28_16-41-36.122904,"14.74,81.96"
2024-05-28_16-41-36.155643,"63.07,57.70"
2024-05-28_16-41-36.188413,"38.14,62.56"
2024-05-28_16-41-36.221200,"58.12,58.70"
2024-05-28_16-41-36.254018,"77.05,64.40"
2024-05-28_16-41-36.286806,"88.08,69.15"
2024-05-28_16-41-36.319383,"58.82,67.78"
2024-05-28_16-41-36.348341,"80.02,73.62"
2024-05-28_16-41-36.380937,"68.15,60.13"
2024-05-28_16-41-36.413869,"53.67,55.62"
2024-05-28_16-41-36.446474,"27.85,54.40"
2024-05-28_16-41-36.479263,"36.96,59.35"
2024-05-28_16-41-36.512080,"54.27,64.42"
2024-05-28_16-41-36.544665,"82.50,68.35"
2024-05-28_16-41-36.573513,"69.85,70.34"
2024-05-28_16-41-36.609587,"56.13,70.00"
2024-05-28_16-41-36.639504,"63.13,87.93"
2024-05-28_16-41-36.671799,"64.99,81.96"
2024-05-28_16-41-36.704562,"55.23,82.29"
2024-05-28_16-41-36.737285,"51.93,70.30"
2024-05-28_16-41-36.770064,"58.79,68.57"
2024-05-28_16-41-36.798727,"54.40,64.26"
2024-05-28_16-41-36.831553,"53.12,66.40"
2024-05-28_16-41-36.864468,"49.87,67.84"
2024-05-28_16-41-36.897055,"55.34,64.53"
2024-05-28_16-41-36.929906,"53.74,74.06"
2024-05-28_16-41-36.962791,"60.44,49.58"
2024-05-28_16-41-36.995300,"66.98,54.18"
2024-05-28_16-41-37.024122,"55.27,75.37"
2024-05-28_16-41-37.056891,"61.74,77.28"
2024-05-28_16-41-37.089628,"51.72,76.59"
2024-05-28_16-41-37.122422,"59.47,63.74"
2024-05-28_16-41-37.155217,"59.95,66.41"
2024-05-28_16-41-37.187871,"63.18,61.13"
2024-05-28_16-41-37.220614,"56.32,68.52"
2024-05-28_16-41-37.249354,"50.55,54.71"
2024-05-28_16-41-37.282141,"47.71,63.05"
2024-05-28_16-41-37.315070,"55.95,50.06"
2024-05-28_16-41-37.347689,"59.88,53.82"
2024-05-28_16-41-37.380435,"52.54,47.14"
2024-05-28_16-41-37.413285,"47.14,47.87"
2024-05-28_16-41-37.445880,"48.07,47.86"
2024-05-28_16-41-37.474675,"46.33,52.83"
2024-05-28_16-41-37.507463,"49.70,57.98"
2024-05-28_16-41-37.541170,"46.31,51.90"
2024-05-28_16-41-37.573028,"45.19,50.31"
2024-05-28_16-41-37.605766,"41.41,51.43"
2024-05-28_16-41-37.638577,"46.86,50.32"
2024-05-28_16-41-37.671169,"42.18,51.25"
2024-05-28_16-41-37.699983,"42.85,52.26"
2024-05-28_16-41-37.732738,"41.99,62.08"
2024-05-28_16-41-37.765632,"43.86,60.78"
2024-05-28_16-41-37.798342,"44.22,63.50"
2024-05-28_16-41-37.831094,"39.52,63.12"
2024-05-28_16-41-37.863967,"45.49,61.53"
2024-05-28_16-41-37.896444,"46.06,72.27"
2024-05-28_16-41-37.925293,"59.02,85.56"
2024-05-28_16-41-37.958070,"42.84,77.36"
2024-05-28_16-41-37.990752,"42.21,71.35"
2024-05-28_16-41-38.023633,"35.21,78.98"
2024-05-28_16-41-38.056381,"36.88,52.94"
2024-05-28_16-41-38.089142,"45.29,54.18"
2024-05-28_16-41-38.121818,"61.35,56.66"
2024-05-28_16-41-38.150586,"75.12,64.57"
2024-05-28_16-41-38.183325,"81.04,62.85"
2024-05-28_16-41-38.216152,"70.94,65.04"
2024-05-28_16-41-38.248826,"80.57,71.70"
2024-05-28_16-41-38.281633,"76.88,75.07"
2024-05-28_16-41-38.314625,"42.33,51.15"
2024-05-28_16-41-38.347064,"53.72,46.64"
2024-05-28_16-41-38.375856,"87.66,39.55"
2024-05-28_16-41-38.408650,"74.17,39.38"
2024-05-28_16-41-38.441365,"36.32,48.77"
2024-05-28_16-41-38.474202,"36.03,57.78"
2024-05-28_16-41-38.506945,"33.99,61.23"
2024-05-28_16-41-38.540596,"28.17,66.39"
2024-05-28_16-41-38.572391,"58.12,60.74"
2024-05-28_16-41-38.601179,"65.43,61.14"
2024-05-28_16-41-38.633954,"69.50,64.41"
2024-05-28_16-41-38.666753,"55.70,55.69"
2024-05-28_16-41-38.699770,"63.47,63.61"
2024-05-28_16-41-38.732251,"62.51,57.42"
2024-05-28_16-41-38.765196,"81.60,52.97"
2024-05-28_16-41-38.798414,"61.03,64.25"
2024-05-28_16-41-38.826489,"58.68,63.36"
2024-05-28_16-41-38.859227,"84.65,67.62"
2024-05-28_16-41-38.892322,"86.14,63.01"
2024-05-28_16-41-38.924772,"63.32,59.75"
2024-05-28_16-41-38.957545,"40.04,46.57"
2024-05-28_16-41-38.990740,"61.40,54.45"
2024-05-28_16-41-39.023034,"56.80,50.24"
2024-05-28_16-41-39.055746,"60.22,50.85"
2024-05-28_16-41-39.084523,"50.30,50.25"
2024-05-28_16-41-39.117292,"41.48,57.94"
2024-05-28_16-41-39.150486,"74.77,49.58"
2024-05-28_16-41-39.182878,"83.79,49.58"
2024-05-28_16-41-39.215735,"77.24,63.01"
2024-05-28_16-41-39.248317,"81.04,61.77"
2024-05-28_16-41-39.281005,"57.02,58.31"
2024-05-28_16-41-39.309860,"70.92,48.23"
2024-05-28_16-41-39.342569,"58.17,56.92"
2024-05-28_16-41-39.375452,"64.97,58.69"
2024-05-28_16-41-39.408180,"79.42,59.70"
2024-05-28_16-41-39.441819,"65.80,54.08"
2024-05-28_16-41-39.473640,"42.40,53.84"
2024-05-28_16-41-39.506419,"38.32,54.52"
2024-05-28_16-41-39.535156,"70.46,63.86"
2024-05-28_16-41-39.567940,"57.75,73.97"
2024-05-28_16-41-39.600658,"50.80,64.42"
2024-05-28_16-41-39.633464,"42.21,52.81"
2024-05-28_16-41-39.666283,"36.50,47.49"
2024-05-28_16-41-39.698874,"39.99,52.21"
2024-05-28_16-41-39.731609,"29.71,47.12"
2024-05-28_16-41-39.760491,"25.85,47.08"
2024-05-28_16-41-39.793171,"19.50,48.57"
2024-05-28_16-41-39.825975,"19.19,52.00"
2024-05-28_16-41-39.858780,"15.78,53.83"
2024-05-28_16-41-39.893151,"36.56,46.92"
2024-05-28_16-41-39.924254,"49.82,45.42"
2024-05-28_16-41-39.956964,"53.50,42.54"
2024-05-28_16-41-39.985737,"45.78,48.07"
2024-05-28_16-41-40.018539,"11.97,43.43"
2024-05-28_16-41-40.051324,"14.21,46.08"
2024-05-28_16-41-40.084028,"17.47,44.19"
2024-05-28_16-41-40.116826,"19.25,44.56"
2024-05-28_16-41-40.150025,"19.47,47.04"
2024-05-28_16-41-40.182298,"18.53,39.99"
2024-05-28_16-41-40.211030,"16.22,39.37"
2024-05-28_16-41-40.243765,"16.81,38.92"
2024-05-28_16-41-40.276603,"14.79,42.69"
2024-05-28_16-41-40.309374,"14.65,40.35"
2024-05-28_16-41-40.342086,"13.48,36.92"
2024-05-28_16-41-40.375095,"11.49,39.53"
2024-05-28_16-41-40.407516,"12.90,39.19"
2024-05-28_16-41-40.436379,"14.44,44.84"
2024-05-28_16-41-40.469106,"13.67,37.07"
2024-05-28_16-41-40.501883,"13.88,37.99"
2024-05-28_16-41-40.534651,"12.73,36.81"
2024-05-28_16-41-40.567461,"14.72,44.73"
2024-05-28_16-41-40.600158,"27.50,38.89"
2024-05-28_16-41-40.632914,"73.74,44.46"
2024-05-28_16-41-40.661667,"22.59,34.96"
2024-05-28_16-41-40.694376,"49.41,64.46"
2024-05-28_16-41-40.727190,"74.11,62.17"
2024-05-28_16-41-40.759978,"67.91,62.72"
2024-05-28_16-41-40.792691,"34.96,55.10"
2024-05-28_16-41-40.825495,"53.11,83.84"
2024-05-28_16-41-40.858169,"21.49,85.67"
2024-05-28_16-41-40.886941,"67.43,49.16"
2024-05-28_16-41-40.919854,"84.80,47.39"
2024-05-28_16-41-40.952470,"67.49,53.75"
2024-05-28_16-41-40.985240,"75.99,61.39"
2024-05-28_16-41-41.018015,"91.13,51.57"
2024-05-28_16-41-41.050829,"74.18,82.68"
2024-05-28_16-41-41.083485,"88.71,74.17"
2024-05-28_16-41-41.115781,"44.74,64.50"
2024-05-28_16-41-41.144969,"84.98,59.38"
2024-05-28_16-41-41.177733,"72.70,58.24"
2024-05-28_16-41-41.210563,"78.13,29.81"
2024-05-28_16-41-41.243296,"73.81,51.17"
2024-05-28_16-41-41.276113,"60.23,75.14"
2024-05-28_16-41-41.308890,"38.66,66.90"
2024-05-28_16-41-41.337519,"65.30,70.40"
2024-05-28_16-41-41.370358,"71.53,48.58"
2024-05-28_16-41-41.403082,"79.12,27.57"
2024-05-28_16-41-41.435862,"78.96,61.78"
2024-05-28_16-41-41.468661,"18.34,32.39"
2024-05-28_16-41-41.501418,"13.32,29.03"
2024-05-28_16-41-41.534085,"12.13,32.82"
2024-05-28_16-41-41.562839,"11.46,37.89"
2024-05-28_16-41-41.595628,"12.16,42.38"
2024-05-28_16-41-41.628402,"12.21,29.93"
2024-05-28_16-41-41.661255,"10.81,29.36"
2024-05-28_16-41-41.693982,"11.27,33.59"
2024-05-28_16-41-41.726753,"14.33,29.28"
2024-05-28_16-41-41.759460,"13.08,30.11"
2024-05-28_16-41-41.788151,"14.66,30.42"
2024-05-28_16-41-41.820937,"14.12,31.31"
2024-05-28_16-41-41.853714,"14.01,33.90"
2024-05-28_16-41-41.886545,"14.93,31.07"
2024-05-28_16-41-41.919273,"14.09,30.28"
2024-05-28_16-41-41.951968,"15.22,29.50"
2024-05-28_16-41-41.984741,"14.17,30.70"
2024-05-28_16-41-42.017528,"14.21,33.22"
2024-05-28_16-41-42.046174,"15.61,30.85"
2024-05-28_16-41-42.079000,"46.81,31.84"
2024-05-28_16-41-42.111872,"13.63,30.56"
2024-05-28_16-41-42.144499,"13.60,33.49"
2024-05-28_16-41-42.177311,"15.05,31.02"
2024-05-28_16-41-42.210073,"13.70,31.22"
2024-05-28_16-41-42.242950,"14.68,30.05"
2024-05-28_16-41-42.271545,"13.49,30.68"
2024-05-28_16-41-42.304358,"13.48,33.56"
2024-05-28_16-41-42.337079,"31.45,29.51"
2024-05-28_16-41-42.369887,"14.82,30.26"
2024-05-28_16-41-42.402550,"13.99,30.56"
2024-05-28_16-41-42.435358,"13.49,33.65"
2024-05-28_16-41-42.468052,"14.53,32.28"
2024-05-28_16-41-42.496795,"13.48,31.19"
2024-05-28_16-41-42.529593,"14.37,31.48"
2024-05-28_16-41-42.562559,"13.59,31.06"
2024-05-28_16-41-42.595163,"13.69,34.56"
2024-05-28_16-41-42.627939,"14.60,30.70"
2024-05-28_16-41-42.660652,"50.31,28.04"
2024-05-28_16-41-42.693319,"13.41,29.22"
2024-05-28_16-41-42.722162,"13.30,31.64"
2024-05-28_16-41-42.754934,"14.76,29.60"
2024-05-28_16-41-42.787619,"13.52,30.27"
2024-05-28_16-41-42.820482,"14.56,29.40"
2024-05-28_16-41-42.853216,"13.58,30.87"
2024-05-28_16-41-42.885931,"13.32,33.86"
2024-05-28_16-41-42.918608,"18.01,42.15"
2024-05-28_16-41-42.947371,"27.21,52.89"
2024-05-28_16-41-42.980198,"30.28,55.73"
2024-05-28_16-41-43.013095,"33.35,55.75"
2024-05-28_16-41-43.045706,"65.90,66.78"
2024-05-28_16-41-43.078534,"68.40,26.90"
2024-05-28_16-41-43.111263,"84.71,27.36"
2024-05-28_16-41-43.143887,"51.88,40.36"
2024-05-28_16-41-43.172748,"13.10,47.17"
2024-05-28_16-41-43.205491,"15.46,32.21"
2024-05-28_16-41-43.238263,"12.02,40.89"
2024-05-28_16-41-43.271056,"15.64,30.09"
2024-05-28_16-41-43.303804,"13.02,34.78"
2024-05-28_16-41-43.336489,"11.17,47.43"
2024-05-28_16-41-43.369215,"13.70,62.02"
2024-05-28_16-41-43.397997,"12.30,62.91"
2024-05-28_16-41-43.430795,"10.69,58.11"
2024-05-28_16-41-43.471524,"10.07,41.40"
2024-05-28_16-41-43.499338,"11.24,46.62"
2024-05-28_16-41-43.529165,"12.32,54.57"
2024-05-28_16-41-43.561909,"11.93,51.74"
2024-05-28_16-41-43.594510,"11.67,50.00"
2024-05-28_16-41-43.623305,"10.97,56.00"
2024-05-28_16-41-43.656140,"11.92,51.71"
2024-05-28_16-41-43.688930,"12.25,70.18"
2024-05-28_16-41-43.721673,"68.84,26.25"
2024-05-28_16-41-43.754438,"84.65,31.23"
2024-05-28_16-41-43.787086,"57.68,67.85"
2024-05-28_16-41-43.819853,"50.34,68.43"
2024-05-28_16-41-43.848607,"66.55,35.82"
2024-05-28_16-41-43.881404,"71.97,31.23"
2024-05-28_16-41-43.914370,"84.25,42.92"
2024-05-28_16-41-43.946918,"79.10,76.14"
2024-05-28_16-41-43.979800,"8.96,57.82"
2024-05-28_16-41-44.012543,"10.40,58.87"
2024-05-28_16-41-44.045113,"6.25,53.80"
2024-05-28_16-41-44.073969,"46.01,53.33"
2024-05-28_16-41-44.106734,"13.28,49.34"
2024-05-28_16-41-44.139540,"55.98,58.07"
2024-05-28_16-41-44.172258,"61.98,33.06"
2024-05-28_16-41-44.204994,"62.97,58.08"
2024-05-28_16-41-44.237712,"74.22,29.74"
2024-05-28_16-41-44.270463,"84.11,24.82"
2024-05-28_16-41-44.299231,"84.44,26.72"
2024-05-28_16-41-44.332005,"84.36,30.68"
2024-05-28_16-41-44.364897,"95.17,26.10"
2024-05-28_16-41-44.397491,"30.62,77.63"
2024-05-28_16-41-44.430313,"19.74,83.77"
2024-05-28_16-41-44.463094,"26.72,84.05"
2024-05-28_16-41-44.495720,"48.65,85.83"
2024-05-28_16-41-44.524543,"53.50,55.97"
2024-05-28_16-41-44.557285,"69.83,26.11"
2024-05-28_16-41-44.590441,"84.51,27.34"
2024-05-28_16-41-44.622883,"84.50,29.59"
2024-05-28_16-41-44.655630,"95.27,26.72"
2024-05-28_16-41-44.688303,"86.59,26.72"
2024-05-28_16-41-44.721064,"28.66,37.36"
2024-05-28_16-41-44.749780,"16.52,82.53"
2024-05-28_16-41-44.782586,"26.66,80.80"
2024-05-28_16-41-44.815488,"57.45,55.24"
2024-05-28_16-41-44.848167,"38.72,66.60"
2024-05-28_16-41-44.880911,"40.98,66.82"
2024-05-28_16-41-44.913679,"43.52,65.96"
2024-05-28_16-41-44.946339,"39.64,74.37"
2024-05-28_16-41-44.975156,"40.24,67.28"
2024-05-28_16-41-45.007891,"40.65,66.53"
2024-05-28_16-41-45.040721,"40.35,66.73"
2024-05-28_16-41-45.073471,"32.20,88.70"
2024-05-28_16-41-45.106218,"84.13,69.88"
2024-05-28_16-41-45.138979,"80.71,48.09"
2024-05-28_16-41-45.171665,"41.33,67.30"
2024-05-28_16-41-45.200419,"67.82,61.03"
2024-05-28_16-41-45.233254,"67.89,58.56"
2024-05-28_16-41-45.266123,"86.29,22.87"
2024-05-28_16-41-45.299934,"71.13,22.08"
2024-05-28_16-41-45.331531,"35.55,66.41"
2024-05-28_16-41-45.364486,"42.22,66.05"
2024-05-28_16-41-45.396971,"56.42,73.50"
2024-05-28_16-41-45.425726,"62.71,71.46"
2024-05-28_16-41-45.458558,"40.97,66.75"
2024-05-28_16-41-45.492138,"75.45,70.27"
2024-05-28_16-41-45.524073,"78.53,38.47"
2024-05-28_16-41-45.556829,"51.76,52.03"
2024-05-28_16-41-45.589620,"40.59,67.99"
2024-05-28_16-41-45.622261,"57.68,70.45"
2024-05-28_16-41-45.654894,"82.39,60.27"
2024-05-28_16-41-45.683733,"33.74,90.77"
2024-05-28_16-41-45.716597,"70.85,89.04"
2024-05-28_16-41-45.749361,"61.08,90.78"
2024-05-28_16-41-45.782059,"24.44,55.53"
2024-05-28_16-41-45.822437,"33.56,15.56"
2024-05-28_16-41-45.847498,"33.42,16.47"
2024-05-28_16-41-45.880228,"36.65,16.30"
2024-05-28_16-41-45.909078,"30.97,17.57"
2024-05-28_16-41-45.942115,"32.97,15.74"
2024-05-28_16-41-45.974587,"28.25,15.26"
2024-05-28_16-41-46.007370,"29.49,15.91"
2024-05-28_16-41-46.040182,"23.33,47.51"
2024-05-28_16-41-46.072834,"13.54,79.30"
2024-05-28_16-41-46.105537,"27.48,54.17"
2024-05-28_16-41-46.134357,"34.84,17.61"
2024-05-28_16-41-46.167113,"31.69,15.06"
2024-05-28_16-41-46.200015,"27.98,16.12"
2024-05-28_16-41-46.232662,"30.05,12.97"
2024-05-28_16-41-46.265654,"33.95,10.29"
2024-05-28_16-41-46.298224,"40.15,13.47"
2024-05-28_16-41-46.330827,"37.92,9.53"
2024-05-28_16-41-46.359737,"37.26,63.14"
2024-05-28_16-41-46.392455,"39.53,78.75"
2024-05-28_16-41-46.425239,"39.38,74.77"
2024-05-28_16-41-46.458029,"32.97,6.00"
2024-05-28_16-41-46.490784,"30.62,7.62"
2024-05-28_16-41-46.523499,"30.43,6.25"
2024-05-28_16-41-46.556243,"31.64,9.55"
2024-05-28_16-41-46.585019,"36.39,11.04"
2024-05-28_16-41-46.617934,"30.46,9.11"
2024-05-28_16-41-46.650524,"31.02,9.55"
2024-05-28_16-41-46.683343,"29.74,63.30"
2024-05-28_16-41-46.716324,"29.47,65.42"
2024-05-28_16-41-46.748781,"23.56,76.52"
2024-05-28_16-41-46.781528,"27.94,43.54"
2024-05-28_16-41-46.810333,"27.38,11.21"
2024-05-28_16-41-46.843067,"30.12,10.17"
2024-05-28_16-41-46.875954,"35.08,10.92"
2024-05-28_16-41-46.908659,"29.74,9.57"
2024-05-28_16-41-46.941495,"30.03,8.96"
2024-05-28_16-41-46.974144,"30.57,40.06"
2024-05-28_16-41-47.006818,"24.02,61.97"
2024-05-28_16-41-47.035667,"28.29,86.78"
2024-05-28_16-41-47.068427,"19.47,80.64"
2024-05-28_16-41-47.101148,"27.83,49.17"
2024-05-28_16-41-47.133922,"28.71,11.33"
2024-05-28_16-41-47.166820,"33.66,10.42"
2024-05-28_16-41-47.199436,"21.71,73.77"
2024-05-28_16-41-47.232169,"28.63,10.08"
2024-05-28_16-41-47.260913,"35.02,67.51"
2024-05-28_16-41-47.293686,"37.09,45.09"
2024-05-28_16-41-47.326449,"46.61,65.44"
2024-05-28_16-41-47.359225,"30.82,43.64"
2024-05-28_16-41-47.392127,"25.69,89.88"
2024-05-28_16-41-47.424730,"32.84,65.16"
2024-05-28_16-41-47.457442,"33.32,8.82"
2024-05-28_16-41-47.486208,"70.61,44.21"
2024-05-28_16-41-47.518993,"89.11,10.43"
2024-05-28_16-41-47.551763,"97.02,63.20"
2024-05-28_16-41-47.584576,"70.49,61.32"
2024-05-28_16-41-47.617392,"86.98,21.67"
2024-05-28_16-41-47.650022,"85.51,23.16"
2024-05-28_16-41-47.682725,"59.21,34.95"
2024-05-28_16-41-47.711565,"61.81,71.38"
2024-05-28_16-41-47.744240,"27.75,85.69"
2024-05-28_16-41-47.777083,"70.18,57.29"
2024-05-28_16-41-47.809841,"37.59,69.84"
2024-05-28_16-41-47.842595,"69.85,26.91"
2024-05-28_16-41-47.875365,"72.54,77.90"
2024-05-28_16-41-47.908061,"82.52,63.84"
2024-05-28_16-41-47.936820,"77.86,72.35"
2024-05-28_16-41-47.969686,"93.58,43.80"
2024-05-28_16-41-48.002363,"77.58,29.20"
2024-05-28_16-41-48.035135,"65.30,24.42"
2024-05-28_16-41-48.067933,"65.04,68.44"
2024-05-28_16-41-48.100626,"54.25,72.84"
2024-05-28_16-41-48.135529,"60.83,77.39"
2024-05-28_16-41-48.167549,"82.60,76.38"
2024-05-28_16-41-48.194885,"87.20,77.46"
2024-05-28_16-41-48.227774,"84.16,46.88"
2024-05-28_16-41-48.260460,"47.75,28.10"
2024-05-28_16-41-48.293162,"12.32,34.39"
2024-05-28_16-41-48.326007,"11.87,30.74"
2024-05-28_16-41-48.358686,"14.35,26.85"
2024-05-28_16-41-48.387428,"65.90,29.22"
2024-05-28_16-41-48.420198,"82.62,26.60"
2024-05-28_16-41-48.452949,"68.68,30.11"
2024-05-28_16-41-48.485735,"14.43,28.46"
2024-05-28_16-41-48.518508,"47.57,35.53"
2024-05-28_16-41-48.551262,"64.27,72.47"
2024-05-28_16-41-48.584023,"61.18,49.45"
2024-05-28_16-41-48.616691,"38.49,74.67"
2024-05-28_16-41-48.645521,"47.81,70.92"
2024-05-28_16-41-48.678257,"69.05,57.78"
2024-05-28_16-41-48.711063,"73.79,90.06"
2024-05-28_16-41-48.743774,"56.51,50.52"
2024-05-28_16-41-48.776637,"95.52,25.47"
2024-05-28_16-41-48.809292,"71.21,55.77"
2024-05-28_16-41-48.842322,"51.93,59.11"
2024-05-28_16-41-48.870866,"52.16,80.52"
2024-05-28_16-41-48.903550,"33.02,68.28"
2024-05-28_16-41-48.936318,"49.12,70.34"
2024-05-28_16-41-48.969121,"39.53,66.18"
2024-05-28_16-41-49.001874,"40.87,66.78"
2024-05-28_16-41-49.034645,"42.40,66.17"
2024-05-28_16-41-49.067489,"39.27,74.52"
2024-05-28_16-41-49.096069,"40.18,67.15"
2024-05-28_16-41-49.128862,"40.10,66.32"
2024-05-28_16-41-49.161679,"40.97,66.73"
2024-05-28_16-41-49.194380,"60.45,65.46"
2024-05-28_16-41-49.227749,"41.12,70.27"
2024-05-28_16-41-49.259884,"48.95,61.61"
2024-05-28_16-41-49.292564,"39.09,65.48"
2024-05-28_16-41-49.321412,"43.13,66.41"
2024-05-28_16-41-49.354230,"39.16,74.44"
2024-05-28_16-41-49.386962,"64.35,68.61"
2024-05-28_16-41-49.419698,"56.93,30.30"
2024-05-28_16-41-49.452509,"83.95,26.72"
2024-05-28_16-41-49.485176,"89.78,26.08"
2024-05-28_16-41-49.517942,"81.56,45.93"
2024-05-28_16-41-49.546742,"55.10,30.87"
2024-05-28_16-41-49.579517,"69.44,52.33"
2024-05-28_16-41-49.612262,"61.93,96.60"
2024-05-28_16-41-49.645017,"56.28,36.42"
2024-05-28_16-41-49.677794,"71.74,54.84"
2024-05-28_16-41-49.710548,"51.29,68.40"
2024-05-28_16-41-49.743202,"54.93,74.20"
2024-05-28_16-41-49.772049,"50.63,69.55"
2024-05-28_16-41-49.804771,"59.01,74.65"
2024-05-28_16-41-49.837553,"40.15,62.11"
2024-05-28_16-41-49.870355,"75.70,95.01"
2024-05-28_16-41-49.903105,"78.45,77.54"
2024-05-28_16-41-49.935803,"95.82,63.65"
2024-05-28_16-41-49.968563,"53.85,69.88"
2024-05-28_16-41-49.997460,"70.37,69.17"
2024-05-28_16-41-50.030093,"33.85,39.23"
2024-05-28_16-41-50.062876,"68.05,71.52"
2024-05-28_16-41-50.099355,"81.54,65.04"
2024-05-28_16-41-50.132719,"64.11,69.27"
2024-05-28_16-41-50.161136,"47.20,78.10"
2024-05-28_16-41-50.193964,"40.59,65.43"
2024-05-28_16-41-50.222632,"42.80,66.27"
2024-05-28_16-41-50.255402,"39.81,74.55"
2024-05-28_16-41-50.288144,"38.53,66.23"
2024-05-28_16-41-50.320994,"40.24,66.68"
2024-05-28_16-41-50.353681,"65.27,72.14"
2024-05-28_16-41-50.386414,"81.50,76.77"
2024-05-28_16-41-50.419756,"57.41,64.91"
2024-05-28_16-41-50.447875,"73.06,64.72"
2024-05-28_16-41-50.486989,"41.27,67.98"
2024-05-28_16-41-50.515642,"43.15,65.93"
2024-05-28_16-41-50.546242,"38.59,74.50"
2024-05-28_16-41-50.578997,"39.59,66.42"
2024-05-28_16-41-50.611695,"73.94,67.55"
2024-05-28_16-41-50.644810,"83.60,28.37"
2024-05-28_16-41-50.673229,"75.37,61.77"
2024-05-28_16-41-50.706122,"71.82,69.66"
2024-05-28_16-41-50.738749,"55.36,73.03"
2024-05-28_16-41-50.771541,"73.69,67.51"
2024-05-28_16-41-50.804327,"59.88,67.18"
2024-05-28_16-41-50.837075,"74.23,71.09"
2024-05-28_16-41-50.869703,"88.66,58.26"
2024-05-28_16-41-50.898634,"70.10,72.43"
2024-05-28_16-41-50.931309,"66.65,99.33"
2024-05-28_16-41-50.964177,"74.14,58.60"
2024-05-28_16-41-50.996868,"70.46,47.48"
2024-05-28_16-41-51.029618,"70.88,54.54"
2024-05-28_16-41-51.062379,"78.74,56.85"
2024-05-28_16-41-51.095023,"77.22,42.78"
2024-05-28_16-41-51.123813,"72.25,31.08"
2024-05-28_16-41-51.156566,"76.66,97.78"
2024-05-28_16-41-51.189459,"69.85,86.08"
2024-05-28_16-41-51.222368,"48.97,100.82"
2024-05-28_16-41-51.254898,"58.21,90.63"
2024-05-28_16-41-51.287642,"58.37,76.53"
2024-05-28_16-41-51.320340,"77.44,73.29"
2024-05-28_16-41-51.349103,"63.15,63.51"
2024-05-28_16-41-51.381931,"72.48,58.96"
2024-05-28_16-41-51.414703,"76.39,50.12"
2024-05-28_16-41-51.447440,"68.03,35.22"
2024-05-28_16-41-51.480205,"66.68,39.84"
2024-05-28_16-41-51.513010,"67.79,39.73"
2024-05-28_16-41-51.545734,"62.88,32.33"
2024-05-28_16-41-51.574427,"97.65,50.34"
2024-05-28_16-41-51.607186,"88.51,75.41"
2024-05-28_16-41-51.639962,"90.07,58.67"
2024-05-28_16-41-51.672770,"97.34,71.61"
2024-05-28_16-41-51.705528,"90.47,75.22"
2024-05-28_16-41-51.738239,"62.55,75.50"
2024-05-28_16-41-51.770909,"63.36,56.45"
2024-05-28_16-41-51.799684,"54.88,67.55"
2024-05-28_16-41-51.832574,"52.49,76.61"
2024-05-28_16-41-51.865331,"77.66,56.48"
2024-05-28_16-41-51.898032,"82.81,30.84"
2024-05-28_16-41-51.930991,"75.25,48.23"
2024-05-28_16-41-51.963645,"73.78,95.77"
2024-05-28_16-41-51.996359,"78.49,61.83"
2024-05-28_16-41-52.028948,"68.65,47.07"
2024-05-28_16-41-52.057826,"65.04,37.08"
2024-05-28_16-41-52.090616,"67.29,36.92"
2024-05-28_16-41-52.123329,"81.13,70.17"
2024-05-28_16-41-52.156099,"85.96,64.74"
2024-05-28_16-41-52.188873,"78.23,45.84"
2024-05-28_16-41-52.221549,"77.38,91.73"
2024-05-28_16-41-52.254232,"64.39,69.88"
2024-05-28_16-41-52.283091,"73.91,74.75"
2024-05-28_16-41-52.316067,"39.98,65.98"
2024-05-28_16-41-52.348635,"37.79,77.31"
2024-05-28_16-41-52.381398,"38.04,69.23"
2024-05-28_16-41-52.414163,"72.63,69.50"
2024-05-28_16-41-52.446854,"81.26,64.46"
2024-05-28_16-41-52.479644,"86.09,68.13"
2024-05-28_16-41-52.508464,"88.27,66.52"
2024-05-28_16-41-52.541195,"83.00,65.94"
2024-05-28_16-41-52.573983,"71.50,60.13"
2024-05-28_16-41-52.606712,"60.39,74.12"
2024-05-28_16-41-52.639546,"66.09,67.01"
2024-05-28_16-41-52.672164,"41.04,72.09"
2024-05-28_16-41-52.704849,"64.86,70.69"
2024-05-28_16-41-52.733691,"75.64,81.86"
2024-05-28_16-41-52.766557,"57.68,78.36"
2024-05-28_16-41-52.799464,"86.80,66.19"
2024-05-28_16-41-52.833604,"90.67,45.31"
2024-05-28_16-41-52.867851,"60.42,59.16"
2024-05-28_16-41-52.903893,"65.50,70.43"
2024-05-28_16-41-52.938478,"59.57,89.23"
2024-05-28_16-41-52.984362,"56.69,53.99"
2024-05-28_16-41-52.994594,"70.31,72.97"
2024-05-28_16-41-53.028105,"66.32,78.75"
2024-05-28_16-41-53.057673,"91.30,72.82"
2024-05-28_16-41-53.090036,"63.97,71.60"
2024-05-28_16-41-53.122771,"80.93,85.37"
2024-05-28_16-41-53.155611,"97.98,64.67"
2024-05-28_16-41-53.184292,"81.41,70.17"
2024-05-28_16-41-53.217275,"62.96,74.89"
2024-05-28_16-41-53.249979,"62.18,78.45"
2024-05-28_16-41-53.282626,"50.73,67.21"
2024-05-28_16-41-53.315523,"36.62,74.79"
2024-05-28_16-41-53.348209,"33.43,73.21"
2024-05-28_16-41-53.380811,"61.51,73.36"
2024-05-28_16-41-53.409947,"82.88,62.64"
2024-05-28_16-41-53.445269,"64.79,88.38"
2024-05-28_16-41-53.475201,"94.32,67.64"
2024-05-28_16-41-53.507975,"79.64,59.21"
2024-05-28_16-41-53.540945,"50.82,59.13"
2024-05-28_16-41-53.573409,"66.82,61.24"
2024-05-28_16-41-53.606110,"59.92,79.20"
2024-05-28_16-41-53.634966,"36.84,63.92"
2024-05-28_16-41-53.667857,"34.08,73.62"
2024-05-28_16-41-53.700539,"76.19,39.59"
2024-05-28_16-41-53.733250,"82.76,31.04"
