timestamp,EMG
2024-05-28_13-08-44.212600,"85.39,86.78"
2024-05-28_13-08-44.245394,"80.72,83.78"
2024-05-28_13-08-44.278179,"92.54,88.11"
2024-05-28_13-08-44.310867,"82.66,78.48"
2024-05-28_13-08-44.343716,"99.46,79.79"
2024-05-28_13-08-44.376377,"113.77,57.66"
2024-05-28_13-08-44.409084,"98.94,54.29"
2024-05-28_13-08-44.437863,"92.31,54.59"
2024-05-28_13-08-44.470640,"66.42,53.93"
2024-05-28_13-08-44.503603,"68.25,53.31"
2024-05-28_13-08-44.536262,"88.17,70.93"
2024-05-28_13-08-44.568995,"68.31,86.81"
2024-05-28_13-08-44.601680,"77.21,87.91"
2024-05-28_13-08-44.634428,"81.04,87.34"
2024-05-28_13-08-44.663315,"84.80,89.25"
2024-05-28_13-08-44.696374,"101.47,88.16"
2024-05-28_13-08-44.728714,"82.02,73.49"
2024-05-28_13-08-44.761494,"105.96,80.20"
2024-05-28_13-08-44.794248,"96.43,78.86"
2024-05-28_13-08-44.827050,"101.82,47.48"
2024-05-28_13-08-44.855743,"90.39,57.26"
2024-05-28_13-08-44.888497,"55.93,57.41"
2024-05-28_13-08-44.921333,"66.78,54.99"
2024-05-28_13-08-44.954156,"79.64,57.85"
2024-05-28_13-08-44.986832,"72.15,76.74"
2024-05-28_13-08-45.019608,"83.02,92.00"
2024-05-28_13-08-45.052324,"76.46,81.74"
2024-05-28_13-08-45.084997,"91.56,80.27"
2024-05-28_13-08-45.113811,"99.40,90.30"
2024-05-28_13-08-45.146522,"90.55,83.42"
2024-05-28_13-08-45.179285,"93.29,87.66"
2024-05-28_13-08-45.212028,"101.09,69.17"
2024-05-28_13-08-45.244817,"89.86,52.68"
2024-05-28_13-08-45.277596,"68.51,59.49"
2024-05-28_13-08-45.310228,"78.66,56.88"
2024-05-28_13-08-45.339034,"75.71,79.43"
2024-05-28_13-08-45.371818,"67.53,83.77"
2024-05-28_13-08-45.404575,"86.39,89.78"
2024-05-28_13-08-45.437457,"62.35,95.10"
2024-05-28_13-08-45.470204,"74.35,85.79"
2024-05-28_13-08-45.503086,"79.11,89.53"
2024-05-28_13-08-45.535544,"75.17,83.15"
2024-05-28_13-08-45.564311,"99.27,85.07"
2024-05-28_13-08-45.597062,"95.51,55.40"
2024-05-28_13-08-45.629820,"77.50,55.99"
2024-05-28_13-08-45.663101,"88.71,55.74"
2024-05-28_13-08-45.695390,"63.67,58.26"
2024-05-28_13-08-45.728027,"90.00,47.77"
2024-05-28_13-08-45.760652,"68.07,92.62"
2024-05-28_13-08-45.789454,"70.68,81.90"
2024-05-28_13-08-45.822274,"90.10,83.82"
2024-05-28_13-08-45.855239,"77.97,85.94"
2024-05-28_13-08-45.887779,"77.11,95.26"
2024-05-28_13-08-45.920489,"97.41,86.13"
2024-05-28_13-08-45.953233,"81.08,74.02"
2024-05-28_13-08-45.985928,"88.76,85.43"
2024-05-28_13-08-46.014673,"108.38,54.86"
2024-05-28_13-08-46.047510,"85.33,55.05"
2024-05-28_13-08-46.080303,"74.85,54.37"
2024-05-28_13-08-46.112976,"77.06,55.55"
2024-05-28_13-08-46.145784,"77.49,55.19"
2024-05-28_13-08-46.178467,"68.10,84.21"
2024-05-28_13-08-46.211174,"83.98,80.33"
2024-05-28_13-08-46.240075,"82.42,81.45"
2024-05-28_13-08-46.272935,"87.26,79.66"
2024-05-28_13-08-46.305644,"82.70,94.10"
2024-05-28_13-08-46.338278,"92.57,80.58"
2024-05-28_13-08-46.370966,"87.34,56.04"
2024-05-28_13-08-46.403712,"101.76,54.50"
2024-05-28_13-08-46.437669,"96.80,57.01"
2024-05-28_13-08-46.465192,"79.00,47.60"
2024-05-28_13-08-46.497879,"68.26,60.68"
2024-05-28_13-08-46.530798,"69.59,58.32"
2024-05-28_13-08-46.563500,"74.07,103.15"
2024-05-28_13-08-46.596240,"73.72,92.37"
2024-05-28_13-08-46.628902,"86.78,79.24"
2024-05-28_13-08-46.661638,"93.03,90.95"
2024-05-28_13-08-46.690448,"89.39,86.25"
2024-05-28_13-08-46.723124,"96.93,81.68"
2024-05-28_13-08-46.755946,"108.16,75.75"
2024-05-28_13-08-46.788628,"92.72,83.88"
2024-05-28_13-08-46.821430,"107.22,69.85"
2024-05-28_13-08-46.854137,"93.83,52.44"
2024-05-28_13-08-46.886833,"73.14,53.40"
2024-05-28_13-08-46.915580,"59.06,61.99"
2024-05-28_13-08-46.948384,"85.59,58.87"
2024-05-28_13-08-46.981129,"63.85,85.43"
2024-05-28_13-08-47.014138,"77.74,79.58"
2024-05-28_13-08-47.046781,"80.90,92.75"
2024-05-28_13-08-47.079365,"87.90,96.85"
2024-05-28_13-08-47.112079,"74.05,85.91"
2024-05-28_13-08-47.140840,"88.21,80.21"
2024-05-28_13-08-47.173618,"98.69,78.54"
2024-05-28_13-08-47.206391,"108.70,76.57"
2024-05-28_13-08-47.239104,"109.03,57.52"
2024-05-28_13-08-47.271888,"67.78,56.49"
2024-05-28_13-08-47.304609,"73.88,53.57"
2024-05-28_13-08-47.337280,"80.90,90.60"
2024-05-28_13-08-47.366055,"78.75,92.76"
2024-05-28_13-08-47.398844,"88.18,91.13"
2024-05-28_13-08-47.431565,"73.90,81.94"
2024-05-28_13-08-47.464332,"84.52,71.95"
2024-05-28_13-08-47.497103,"95.83,55.66"
2024-05-28_13-08-47.529857,"89.11,53.19"
2024-05-28_13-08-47.562541,"99.33,54.29"
2024-05-28_13-08-47.591257,"95.54,51.50"
2024-05-28_13-08-47.624081,"77.67,54.85"
2024-05-28_13-08-47.656834,"94.61,58.77"
2024-05-28_13-08-47.689563,"66.02,56.64"
2024-05-28_13-08-47.722331,"80.36,60.40"
2024-05-28_13-08-47.755090,"71.11,82.91"
2024-05-28_13-08-47.787731,"87.15,91.48"
2024-05-28_13-08-47.816534,"85.37,90.89"
2024-05-28_13-08-47.849531,"75.90,77.20"
2024-05-28_13-08-47.882077,"90.29,54.98"
2024-05-28_13-08-47.914806,"88.64,56.37"
2024-05-28_13-08-47.947550,"93.12,46.78"
2024-05-28_13-08-47.980317,"106.45,57.07"
2024-05-28_13-08-48.012998,"86.31,54.40"
2024-05-28_13-08-48.045785,"95.64,54.93"
2024-05-28_13-08-48.078570,"60.79,69.58"
2024-05-28_13-08-48.107328,"84.06,67.01"
2024-05-28_13-08-48.140351,"68.62,78.14"
2024-05-28_13-08-48.172835,"73.16,72.41"
2024-05-28_13-08-48.205596,"89.88,90.08"
2024-05-28_13-08-48.238246,"85.96,76.51"
2024-05-28_13-08-48.270933,"85.61,85.06"
2024-05-28_13-08-48.299723,"94.87,51.99"
2024-05-28_13-08-48.332556,"92.85,50.70"
2024-05-28_13-08-48.365310,"91.33,52.62"
2024-05-28_13-08-48.398010,"90.95,57.66"
2024-05-28_13-08-48.431015,"79.09,54.74"
2024-05-28_13-08-48.463493,"88.24,56.17"
2024-05-28_13-08-48.496153,"70.10,54.64"
2024-05-28_13-08-48.524985,"81.45,59.17"
2024-05-28_13-08-48.557710,"72.66,79.34"
2024-05-28_13-08-48.590512,"71.42,85.67"
2024-05-28_13-08-48.623333,"72.12,86.68"
2024-05-28_13-08-48.656160,"78.48,64.18"
2024-05-28_13-08-48.688767,"71.34,59.33"
2024-05-28_13-08-48.721413,"104.18,60.53"
2024-05-28_13-08-48.750319,"83.42,54.15"
2024-05-28_13-08-48.783007,"89.93,53.66"
2024-05-28_13-08-48.816396,"85.52,59.15"
2024-05-28_13-08-48.848600,"91.13,49.21"
2024-05-28_13-08-48.881350,"81.20,59.12"
2024-05-28_13-08-48.913934,"71.00,58.12"
2024-05-28_13-08-48.946756,"84.51,61.09"
2024-05-28_13-08-48.975532,"73.26,83.27"
2024-05-28_13-08-49.008360,"83.18,88.22"
2024-05-28_13-08-49.041012,"76.91,95.71"
2024-05-28_13-08-49.073781,"87.00,85.56"
2024-05-28_13-08-49.106504,"75.94,60.30"
2024-05-28_13-08-49.139166,"94.84,58.52"
2024-05-28_13-08-49.171896,"88.29,53.92"
2024-05-28_13-08-49.200834,"91.43,54.91"
2024-05-28_13-08-49.233420,"84.43,51.93"
2024-05-28_13-08-49.266244,"85.80,56.05"
2024-05-28_13-08-49.298945,"80.28,59.08"
2024-05-28_13-08-49.331765,"77.51,57.24"
2024-05-28_13-08-49.364412,"72.11,70.07"
2024-05-28_13-08-49.397118,"72.02,84.20"
2024-05-28_13-08-49.425895,"82.60,98.35"
2024-05-28_13-08-49.458697,"92.06,89.48"
2024-05-28_13-08-49.491435,"81.85,74.22"
2024-05-28_13-08-49.524178,"83.21,59.90"
2024-05-28_13-08-49.561373,"93.36,57.50"
2024-05-28_13-08-49.589682,"86.26,47.90"
2024-05-28_13-08-49.622532,"101.93,58.47"
2024-05-28_13-08-49.651195,"88.97,55.09"
2024-05-28_13-08-49.684074,"86.65,55.64"
2024-05-28_13-08-49.716709,"65.68,59.29"
2024-05-28_13-08-49.749483,"92.09,47.12"
2024-05-28_13-08-49.782196,"70.57,91.55"
2024-05-28_13-08-49.814904,"73.49,84.44"
2024-05-28_13-08-49.847574,"74.21,87.35"
2024-05-28_13-08-49.876476,"87.80,89.02"
2024-05-28_13-08-49.909222,"80.92,92.21"
2024-05-28_13-08-49.942048,"97.07,86.44"
2024-05-28_13-08-49.974655,"96.01,79.50"
2024-05-28_13-08-50.007675,"98.64,53.35"
2024-05-28_13-08-50.040130,"91.46,59.24"
2024-05-28_13-08-50.072992,"68.04,56.13"
2024-05-28_13-08-50.101609,"85.19,55.77"
2024-05-28_13-08-50.134347,"76.67,55.77"
2024-05-28_13-08-50.167165,"72.05,96.57"
2024-05-28_13-08-50.199916,"68.05,99.89"
2024-05-28_13-08-50.232676,"71.52,82.76"
2024-05-28_13-08-50.265460,"77.37,93.90"
2024-05-28_13-08-50.298058,"90.36,60.75"
2024-05-28_13-08-50.326772,"85.77,48.93"
2024-05-28_13-08-50.359584,"108.19,56.56"
2024-05-28_13-08-50.392331,"83.82,54.70"
2024-05-28_13-08-50.425109,"92.27,55.28"
2024-05-28_13-08-50.457847,"101.42,57.90"
2024-05-28_13-08-50.490623,"71.74,49.64"
2024-05-28_13-08-50.523386,"69.92,58.95"
2024-05-28_13-08-50.552070,"75.51,71.96"
2024-05-28_13-08-50.584821,"68.61,85.58"
2024-05-28_13-08-50.617592,"95.61,85.85"
2024-05-28_13-08-50.651099,"84.16,91.52"
2024-05-28_13-08-50.683146,"83.27,64.87"
2024-05-28_13-08-50.715812,"84.37,55.83"
2024-05-28_13-08-50.748615,"90.97,52.81"
2024-05-28_13-08-50.777319,"90.89,57.29"
2024-05-28_13-08-50.810192,"90.22,53.96"
2024-05-28_13-08-50.842847,"91.12,55.93"
2024-05-28_13-08-50.875543,"75.64,53.52"
2024-05-28_13-08-50.908303,"67.96,53.85"
2024-05-28_13-08-50.941063,"80.99,57.35"
2024-05-28_13-08-50.973768,"74.19,86.21"
2024-05-28_13-08-51.002639,"85.37,94.31"
2024-05-28_13-08-51.035377,"74.30,84.85"
2024-05-28_13-08-51.068222,"75.18,75.03"
2024-05-28_13-08-51.100986,"90.72,62.97"
2024-05-28_13-08-51.133628,"82.34,54.74"
2024-05-28_13-08-51.166422,"100.30,54.44"
2024-05-28_13-08-51.199008,"85.84,57.88"
2024-05-28_13-08-51.227756,"96.89,47.40"
2024-05-28_13-08-51.260601,"92.40,58.85"
2024-05-28_13-08-51.293306,"61.60,56.94"
2024-05-28_13-08-51.326104,"72.25,54.58"
2024-05-28_13-08-51.358842,"82.31,63.69"
2024-05-28_13-08-51.391567,"74.16,80.45"
2024-05-28_13-08-51.424307,"82.02,94.36"
2024-05-28_13-08-51.452994,"83.55,85.23"
2024-05-28_13-08-51.485803,"88.09,72.45"
2024-05-28_13-08-51.518573,"93.13,90.40"
2024-05-28_13-08-51.551459,"87.35,85.90"
2024-05-28_13-08-51.584062,"99.02,88.61"
2024-05-28_13-08-51.616861,"104.26,53.36"
2024-05-28_13-08-51.649524,"90.32,53.95"
2024-05-28_13-08-51.678269,"76.54,59.42"
2024-05-28_13-08-51.711012,"78.37,57.08"
2024-05-28_13-08-51.743792,"76.26,78.63"
2024-05-28_13-08-51.776502,"68.39,69.73"
2024-05-28_13-08-51.809299,"81.58,85.76"
2024-05-28_13-08-51.842014,"86.52,91.76"
2024-05-28_13-08-51.874701,"86.59,67.08"
2024-05-28_13-08-51.907399,"93.03,82.78"
2024-05-28_13-08-51.936254,"99.92,77.32"
2024-05-28_13-08-51.968977,"106.71,76.39"
2024-05-28_13-08-52.001749,"107.28,57.93"
2024-05-28_13-08-52.034550,"82.29,55.74"
2024-05-28_13-08-52.067320,"82.81,55.49"
2024-05-28_13-08-52.099920,"64.93,59.25"
2024-05-28_13-08-52.132636,"88.02,47.02"
2024-05-28_13-08-52.161463,"65.30,87.99"
2024-05-28_13-08-52.194240,"73.81,93.46"
2024-05-28_13-08-52.226992,"75.10,89.86"
2024-05-28_13-08-52.259866,"89.94,79.15"
2024-05-28_13-08-52.292616,"86.92,54.57"
2024-05-28_13-08-52.325403,"93.08,55.43"
2024-05-28_13-08-52.357885,"85.97,51.66"
2024-05-28_13-08-52.386731,"90.50,55.75"
2024-05-28_13-08-52.419512,"97.98,58.36"
2024-05-28_13-08-52.452246,"75.96,55.83"
2024-05-28_13-08-52.485633,"75.57,53.52"
2024-05-28_13-08-52.517804,"90.39,80.93"
2024-05-28_13-08-52.550522,"74.01,62.25"
2024-05-28_13-08-52.583131,"70.07,105.16"
2024-05-28_13-08-52.616210,"76.28,79.99"
2024-05-28_13-08-52.644701,"71.53,80.84"
2024-05-28_13-08-52.677528,"80.37,61.41"
2024-05-28_13-08-52.710263,"77.00,57.18"
2024-05-28_13-08-52.743013,"92.07,59.09"
2024-05-28_13-08-52.775973,"75.09,55.42"
2024-05-28_13-08-52.808365,"80.19,57.28"
2024-05-28_13-08-52.837151,"84.35,59.07"
2024-05-28_13-08-52.870053,"71.05,50.06"
2024-05-28_13-08-52.902724,"88.10,88.19"
2024-05-28_13-08-52.935532,"72.79,71.38"
2024-05-28_13-08-52.968268,"70.36,96.32"
2024-05-28_13-08-53.001119,"88.48,96.19"
2024-05-28_13-08-53.033600,"74.59,94.00"
2024-05-28_13-08-53.062473,"80.96,63.45"
2024-05-28_13-08-53.095171,"73.83,70.89"
2024-05-28_13-08-53.128049,"87.47,91.67"
2024-05-28_13-08-53.160672,"101.19,59.73"
2024-05-28_13-08-53.193495,"80.86,54.89"
2024-05-28_13-08-53.226146,"94.49,57.33"
2024-05-28_13-08-53.258832,"82.55,55.16"
2024-05-28_13-08-53.288008,"65.90,57.82"
2024-05-28_13-08-53.320397,"80.56,61.34"
2024-05-28_13-08-53.353486,"77.07,63.99"
2024-05-28_13-08-53.385912,"65.54,97.93"
2024-05-28_13-08-53.418718,"66.79,86.21"
2024-05-28_13-08-53.451512,"80.15,78.02"
2024-05-28_13-08-53.484973,"84.10,87.64"
2024-05-28_13-08-53.512858,"75.97,94.29"
2024-05-28_13-08-53.545796,"86.09,79.79"
2024-05-28_13-08-53.578350,"76.87,72.16"
2024-05-28_13-08-53.611293,"91.23,54.59"
2024-05-28_13-08-53.643912,"85.30,60.39"
2024-05-28_13-08-53.676651,"60.88,57.58"
2024-05-28_13-08-53.709281,"87.34,55.52"
2024-05-28_13-08-53.738050,"80.34,60.40"
2024-05-28_13-08-53.771198,"75.23,75.37"
2024-05-28_13-08-53.803644,"74.75,100.97"
2024-05-28_13-08-53.836311,"80.30,75.61"
2024-05-28_13-08-53.869129,"84.54,86.87"
2024-05-28_13-08-53.902056,"85.29,89.23"
2024-05-28_13-08-53.934622,"85.81,87.78"
2024-05-28_13-08-53.963372,"89.05,60.09"
2024-05-28_13-08-53.996188,"84.08,56.22"
2024-05-28_13-08-54.028898,"85.82,58.04"
2024-05-28_13-08-54.061833,"80.40,61.22"
2024-05-28_13-08-54.094510,"82.57,57.70"
2024-05-28_13-08-54.127136,"76.69,68.02"
2024-05-28_13-08-54.160435,"66.46,73.84"
2024-05-28_13-08-54.188569,"88.79,93.46"
2024-05-28_13-08-54.221450,"67.35,102.22"
2024-05-28_13-08-54.254085,"79.72,62.74"
2024-05-28_13-08-54.287002,"90.24,82.85"
2024-05-28_13-08-54.319750,"89.49,87.50"
2024-05-28_13-08-54.352339,"99.63,92.55"
2024-05-28_13-08-54.385020,"104.00,54.81"
2024-05-28_13-08-54.413787,"86.78,56.76"
2024-05-28_13-08-54.446583,"80.17,57.74"
2024-05-28_13-08-54.479411,"66.61,61.73"
2024-05-28_13-08-54.512276,"89.00,47.48"
2024-05-28_13-08-54.544837,"70.00,81.53"
2024-05-28_13-08-54.577648,"79.43,85.13"
2024-05-28_13-08-54.610247,"61.20,94.29"
2024-05-28_13-08-54.639122,"91.45,72.91"
2024-05-28_13-08-54.671872,"82.73,96.10"
2024-05-28_13-08-54.704578,"101.41,85.24"
2024-05-28_13-08-54.737364,"92.06,69.93"
2024-05-28_13-08-54.770174,"102.05,53.62"
2024-05-28_13-08-54.802874,"98.52,58.32"
2024-05-28_13-08-54.835592,"68.18,56.71"
2024-05-28_13-08-54.864830,"75.68,55.76"
2024-05-28_13-08-54.897117,"90.91,58.05"
2024-05-28_13-08-54.929815,"71.54,75.39"
2024-05-28_13-08-54.962623,"63.56,92.36"
2024-05-28_13-08-54.995491,"77.50,89.68"
2024-05-28_13-08-55.028133,"77.78,88.99"
2024-05-28_13-08-55.060777,"79.40,86.86"
2024-05-28_13-08-55.089525,"84.62,88.49"
2024-05-28_13-08-55.122314,"98.46,85.18"
2024-05-28_13-08-55.155089,"87.15,71.02"
2024-05-28_13-08-55.187850,"98.93,54.07"
2024-05-28_13-08-55.220722,"79.10,58.42"
2024-05-28_13-08-55.253349,"69.72,48.87"
2024-05-28_13-08-55.286096,"80.05,59.07"
2024-05-28_13-08-55.318725,"73.61,78.83"
2024-05-28_13-08-55.347527,"70.15,92.87"
2024-05-28_13-08-55.380380,"73.29,88.16"
2024-05-28_13-08-55.413119,"82.52,78.38"
2024-05-28_13-08-55.445867,"89.60,92.29"
2024-05-28_13-08-55.478615,"89.80,80.51"
2024-05-28_13-08-55.511386,"98.81,82.85"
2024-05-28_13-08-55.543944,"85.54,60.32"
2024-05-28_13-08-55.572769,"104.24,54.89"
2024-05-28_13-08-55.605516,"85.50,54.37"
2024-05-28_13-08-55.638350,"70.02,54.86"
2024-05-28_13-08-55.671035,"73.46,53.63"
2024-05-28_13-08-55.703828,"76.42,92.85"
2024-05-28_13-08-55.736648,"70.71,83.64"
2024-05-28_13-08-55.769156,"77.95,88.94"
2024-05-28_13-08-55.797996,"82.09,84.49"
2024-05-28_13-08-55.830758,"86.23,82.81"
2024-05-28_13-08-55.863560,"97.64,96.70"
2024-05-28_13-08-55.896303,"89.93,83.22"
2024-05-28_13-08-55.929143,"107.78,70.64"
2024-05-28_13-08-55.961670,"104.83,57.13"
2024-05-28_13-08-55.994479,"88.02,46.97"
2024-05-28_13-08-56.023222,"81.36,59.03"
2024-05-28_13-08-56.056014,"71.92,57.76"
2024-05-28_13-08-56.088770,"73.10,56.26"
2024-05-28_13-08-56.121570,"75.65,91.15"
2024-05-28_13-08-56.154275,"72.10,81.65"
2024-05-28_13-08-56.187034,"78.23,96.30"
2024-05-28_13-08-56.219671,"81.56,80.78"
2024-05-28_13-08-56.248573,"84.27,87.34"
2024-05-28_13-08-56.281254,"94.38,85.60"
2024-05-28_13-08-56.314117,"100.24,70.42"
2024-05-28_13-08-56.346783,"102.20,54.13"
2024-05-28_13-08-56.379598,"88.99,52.76"
2024-05-28_13-08-56.412195,"69.94,54.15"
2024-05-28_13-08-56.444910,"75.82,60.96"
2024-05-28_13-08-56.475114,"79.95,86.46"
2024-05-28_13-08-56.506570,"66.42,95.43"
2024-05-28_13-08-56.539245,"77.72,83.96"
2024-05-28_13-08-56.572032,"76.11,90.90"
2024-05-28_13-08-56.604772,"93.40,91.65"
2024-05-28_13-08-56.637549,"86.68,85.78"
2024-05-28_13-08-56.670178,"92.91,82.20"
2024-05-28_13-08-56.699116,"88.52,85.17"
2024-05-28_13-08-56.731742,"86.05,48.16"
2024-05-28_13-08-56.764579,"93.25,59.04"
2024-05-28_13-08-56.797210,"62.77,56.62"
2024-05-28_13-08-56.830027,"69.97,55.07"
2024-05-28_13-08-56.862670,"83.98,56.94"
2024-05-28_13-08-56.895548,"72.58,77.83"
2024-05-28_13-08-56.924116,"70.92,99.22"
2024-05-28_13-08-56.957037,"75.79,82.61"
2024-05-28_13-08-56.989697,"82.62,74.04"
2024-05-28_13-08-57.022514,"84.18,87.28"
2024-05-28_13-08-57.055241,"80.52,86.53"
2024-05-28_13-08-57.088120,"99.25,89.29"
2024-05-28_13-08-57.121763,"70.17,54.81"
2024-05-28_13-08-57.149431,"79.94,56.77"
2024-05-28_13-08-57.182293,"79.77,60.25"
2024-05-28_13-08-57.214957,"63.42,57.53"
2024-05-28_13-08-57.247784,"81.81,53.07"
2024-05-28_13-08-57.280484,"74.16,61.76"
2024-05-28_13-08-57.313236,"79.36,93.22"
2024-05-28_13-08-57.345846,"65.34,94.62"
2024-05-28_13-08-57.374717,"85.05,83.69"
2024-05-28_13-08-57.407532,"87.85,92.36"
2024-05-28_13-08-57.440199,"88.22,82.30"
2024-05-28_13-08-57.472952,"93.47,81.64"
2024-05-28_13-08-57.505720,"110.38,56.78"
2024-05-28_13-08-57.547115,"94.99,54.79"
2024-05-28_13-08-57.571675,"83.23,55.21"
2024-05-28_13-08-57.600169,"74.17,59.47"
2024-05-28_13-08-57.632681,"82.71,78.25"
2024-05-28_13-08-57.665431,"72.66,82.78"
2024-05-28_13-08-57.698236,"69.02,82.28"
2024-05-28_13-08-57.730938,"71.10,94.93"
2024-05-28_13-08-57.763675,"79.28,87.21"
2024-05-28_13-08-57.796331,"84.13,88.04"
2024-05-28_13-08-57.825063,"90.99,92.64"
2024-05-28_13-08-57.857901,"93.44,78.01"
2024-05-28_13-08-57.890624,"90.94,57.43"
2024-05-28_13-08-57.923449,"99.64,58.32"
2024-05-28_13-08-57.956190,"77.83,55.56"
2024-05-28_13-08-57.989030,"74.57,56.89"
2024-05-28_13-08-58.021594,"66.32,55.23"
2024-05-28_13-08-58.050504,"81.48,52.11"
2024-05-28_13-08-58.083145,"70.18,91.99"
2024-05-28_13-08-58.115909,"80.60,82.71"
2024-05-28_13-08-58.148637,"68.21,87.18"
2024-05-28_13-08-58.181433,"81.19,84.85"
2024-05-28_13-08-58.214190,"75.11,86.31"
2024-05-28_13-08-58.246839,"101.16,94.99"
2024-05-28_13-08-58.275694,"89.54,71.00"
2024-05-28_13-08-58.308382,"99.14,69.67"
2024-05-28_13-08-58.341094,"91.96,57.60"
2024-05-28_13-08-58.374001,"85.55,47.67"
2024-05-28_13-08-58.409800,"77.06,59.05"
2024-05-28_13-08-58.439432,"72.61,57.84"
2024-05-28_13-08-58.472102,"75.01,59.60"
2024-05-28_13-08-58.500855,"72.81,92.03"
2024-05-28_13-08-58.533607,"74.50,80.54"
2024-05-28_13-08-58.566383,"73.81,98.71"
2024-05-28_13-08-58.599159,"82.52,91.98"
2024-05-28_13-08-58.631916,"88.97,84.43"
2024-05-28_13-08-58.664766,"102.36,78.64"
2024-05-28_13-08-58.697331,"102.13,68.88"
2024-05-28_13-08-58.726111,"96.42,54.49"
2024-05-28_13-08-58.758830,"86.63,53.40"
2024-05-28_13-08-58.791751,"67.17,56.42"
2024-05-28_13-08-58.824457,"82.13,59.38"
2024-05-28_13-08-58.857141,"78.02,66.32"
2024-05-28_13-08-58.889892,"75.89,82.49"
2024-05-28_13-08-58.922963,"71.01,81.34"
2024-05-28_13-08-58.955259,"85.38,86.06"
2024-05-28_13-08-58.984243,"93.94,92.21"
2024-05-28_13-08-59.016916,"86.54,81.73"
2024-05-28_13-08-59.049825,"93.30,84.56"
2024-05-28_13-08-59.082387,"76.52,59.77"
2024-05-28_13-08-59.115138,"100.29,47.62"
2024-05-28_13-08-59.147791,"94.64,58.28"
2024-05-28_13-08-59.180552,"58.53,58.17"
2024-05-28_13-08-59.209313,"70.45,53.70"
2024-05-28_13-08-59.242152,"82.11,57.01"
2024-05-28_13-08-59.274854,"78.05,77.36"
2024-05-28_13-08-59.307580,"78.83,95.51"
2024-05-28_13-08-59.340335,"89.49,82.76"
2024-05-28_13-08-59.373031,"92.83,80.88"
2024-05-28_13-08-59.405745,"97.64,89.43"
2024-05-28_13-08-59.434564,"93.03,86.64"
2024-05-28_13-08-59.467404,"104.54,66.29"
2024-05-28_13-08-59.500217,"81.55,52.57"
2024-05-28_13-08-59.532887,"89.18,55.51"
2024-05-28_13-08-59.565640,"74.67,60.72"
2024-05-28_13-08-59.598277,"80.14,57.47"
2024-05-28_13-08-59.631061,"76.25,55.77"
2024-05-28_13-08-59.659809,"69.93,70.69"
2024-05-28_13-08-59.692557,"91.74,88.05"
2024-05-28_13-08-59.725399,"87.07,91.81"
2024-05-28_13-08-59.758135,"87.39,68.66"
2024-05-28_13-08-59.790802,"93.94,85.53"
2024-05-28_13-08-59.823500,"98.59,76.99"
2024-05-28_13-08-59.856273,"103.47,83.44"
2024-05-28_13-08-59.885464,"106.00,57.91"
2024-05-28_13-08-59.917860,"80.45,55.48"
2024-05-28_13-08-59.950582,"76.47,55.86"
2024-05-28_13-08-59.983742,"63.40,59.49"
2024-05-28_13-09-00.016300,"89.30,47.73"
2024-05-28_13-09-00.048834,"67.03,73.10"
2024-05-28_13-09-00.081479,"72.94,86.92"
2024-05-28_13-09-00.110285,"66.22,90.20"
2024-05-28_13-09-00.143179,"93.83,86.46"
2024-05-28_13-09-00.175828,"80.36,84.75"
2024-05-28_13-09-00.208571,"98.98,87.36"
2024-05-28_13-09-00.241325,"89.47,72.98"
2024-05-28_13-09-00.274083,"103.58,69.90"
2024-05-28_13-09-00.306762,"102.02,57.91"
2024-05-28_13-09-00.335498,"69.26,56.66"
2024-05-28_13-09-00.368439,"75.07,54.11"
2024-05-28_13-09-00.401081,"77.83,56.54"
2024-05-28_13-09-00.433842,"72.51,89.97"
2024-05-28_13-09-00.466632,"73.37,94.23"
2024-05-28_13-09-00.499446,"83.46,84.97"
2024-05-28_13-09-00.531987,"77.33,76.21"
2024-05-28_13-09-00.560777,"79.69,89.34"
2024-05-28_13-09-00.593604,"93.81,86.26"
2024-05-28_13-09-00.626382,"106.90,87.31"
2024-05-28_13-09-00.659081,"91.40,56.44"
2024-05-28_13-09-00.691772,"97.06,54.42"
2024-05-28_13-09-00.724638,"77.72,57.79"
2024-05-28_13-09-00.757326,"69.27,50.09"
2024-05-28_13-09-00.786077,"78.01,60.54"
2024-05-28_13-09-00.818776,"70.30,62.35"
2024-05-28_13-09-00.851479,"75.20,89.74"
2024-05-28_13-09-00.884325,"81.83,84.29"
2024-05-28_13-09-00.917128,"79.28,78.73"
2024-05-28_13-09-00.949912,"90.91,91.68"
2024-05-28_13-09-00.982464,"89.20,81.28"
2024-05-28_13-09-01.011272,"87.81,83.34"
2024-05-28_13-09-01.044062,"109.65,70.40"
2024-05-28_13-09-01.076787,"86.04,54.71"
2024-05-28_13-09-01.113324,"81.83,55.62"
2024-05-28_13-09-01.142463,"79.46,54.56"
2024-05-28_13-09-01.175106,"76.83,54.78"
2024-05-28_13-09-01.207777,"80.61,73.16"
2024-05-28_13-09-01.236504,"72.70,89.96"
2024-05-28_13-09-01.269432,"81.83,86.69"
2024-05-28_13-09-01.301997,"72.49,82.67"
2024-05-28_13-09-01.334812,"82.44,84.49"
2024-05-28_13-09-01.367740,"95.64,101.27"
2024-05-28_13-09-01.400371,"80.12,78.97"
2024-05-28_13-09-01.433069,"104.77,78.32"
2024-05-28_13-09-01.465679,"96.61,58.27"
2024-05-28_13-09-01.494523,"77.33,48.21"
2024-05-28_13-09-01.527244,"78.94,60.14"
2024-05-28_13-09-01.560009,"56.13,58.70"
2024-05-28_13-09-01.592822,"78.08,54.89"
2024-05-28_13-09-01.625530,"75.75,72.02"
2024-05-28_13-09-01.658219,"84.92,78.69"
2024-05-28_13-09-01.690884,"77.78,91.01"
2024-05-28_13-09-01.719696,"88.66,81.14"
2024-05-28_13-09-01.752463,"93.21,88.48"
2024-05-28_13-09-01.785211,"104.05,79.38"
2024-05-28_13-09-01.818106,"90.33,85.20"
2024-05-28_13-09-01.850794,"113.86,70.13"
2024-05-28_13-09-01.883455,"97.62,52.43"
2024-05-28_13-09-01.916144,"76.04,55.05"
2024-05-28_13-09-01.944912,"64.89,60.36"
2024-05-28_13-09-01.977685,"74.94,59.39"
2024-05-28_13-09-02.010794,"68.78,55.40"
2024-05-28_13-09-02.043271,"74.65,82.14"
2024-05-28_13-09-02.076013,"81.91,86.73"
2024-05-28_13-09-02.108692,"101.69,90.07"
2024-05-28_13-09-02.141398,"87.16,83.83"
2024-05-28_13-09-02.170165,"98.06,77.72"
2024-05-28_13-09-02.202987,"89.11,82.70"
2024-05-28_13-09-02.235723,"101.73,64.55"
2024-05-28_13-09-02.274499,"113.10,56.72"
2024-05-28_13-09-02.302581,"72.56,55.24"
2024-05-28_13-09-02.334062,"80.02,53.63"
2024-05-28_13-09-02.366890,"79.15,59.25"
2024-05-28_13-09-02.395448,"78.92,51.90"
2024-05-28_13-09-02.428215,"68.95,97.38"
2024-05-28_13-09-02.460983,"73.36,81.34"
2024-05-28_13-09-02.493877,"91.55,83.22"
2024-05-28_13-09-02.526514,"89.53,81.98"
2024-05-28_13-09-02.559176,"84.49,87.21"
2024-05-28_13-09-02.591877,"96.66,85.20"
2024-05-28_13-09-02.620670,"94.08,68.07"
2024-05-28_13-09-02.653424,"96.66,52.63"
2024-05-28_13-09-02.686187,"91.49,58.82"
2024-05-28_13-09-02.718955,"63.73,57.03"
2024-05-28_13-09-02.751815,"80.15,55.21"
2024-05-28_13-09-02.784440,"74.99,81.35"
2024-05-28_13-09-02.817140,"82.24,89.56"
2024-05-28_13-09-02.845914,"77.40,89.42"
2024-05-28_13-09-02.878761,"87.59,70.59"
2024-05-28_13-09-02.911436,"89.86,78.87"
2024-05-28_13-09-02.944174,"92.99,79.45"
2024-05-28_13-09-02.976983,"100.29,80.48"
2024-05-28_13-09-03.009704,"113.56,71.49"
2024-05-28_13-09-03.043526,"92.41,54.48"
2024-05-28_13-09-03.071280,"88.56,53.61"
2024-05-28_13-09-03.104063,"63.35,58.71"
2024-05-28_13-09-03.136778,"77.51,47.72"
2024-05-28_13-09-03.169468,"66.76,85.90"
2024-05-28_13-09-03.202205,"75.78,81.16"
2024-05-28_13-09-03.234951,"81.88,82.84"
2024-05-28_13-09-03.267643,"97.23,71.36"
2024-05-28_13-09-03.296366,"88.93,82.13"
2024-05-28_13-09-03.329172,"101.38,84.76"
2024-05-28_13-09-03.362566,"91.70,70.40"
2024-05-28_13-09-03.394681,"93.85,69.12"
2024-05-28_13-09-03.427545,"93.10,58.20"
2024-05-28_13-09-03.460304,"74.20,56.40"
2024-05-28_13-09-03.492857,"68.74,56.82"
2024-05-28_13-09-03.521768,"73.34,57.74"
2024-05-28_13-09-03.554415,"72.46,93.51"
2024-05-28_13-09-03.587206,"77.43,93.15"
2024-05-28_13-09-03.620113,"89.88,82.55"
2024-05-28_13-09-03.652747,"89.30,82.85"
2024-05-28_13-09-03.685448,"87.59,85.72"
2024-05-28_13-09-03.736996,"95.67,83.40"
2024-05-28_13-09-03.753051,"101.09,76.23"
2024-05-28_13-09-03.780024,"70.75,57.36"
2024-05-28_13-09-03.812478,"81.36,56.35"
2024-05-28_13-09-03.845218,"77.40,58.35"
2024-05-28_13-09-03.878002,"66.51,51.94"
2024-05-28_13-09-03.910745,"81.59,60.02"
2024-05-28_13-09-03.943358,"72.69,63.81"
2024-05-28_13-09-03.972159,"70.92,92.17"
2024-05-28_13-09-04.004956,"79.12,86.31"
2024-05-28_13-09-04.037738,"77.15,80.81"
2024-05-28_13-09-04.070528,"92.16,92.26"
2024-05-28_13-09-04.103227,"93.16,77.23"
2024-05-28_13-09-04.136007,"92.90,81.91"
2024-05-28_13-09-04.168658,"106.08,71.97"
2024-05-28_13-09-04.206371,"95.83,54.23"
2024-05-28_13-09-04.230308,"85.35,55.60"
2024-05-28_13-09-04.262945,"75.66,54.87"
2024-05-28_13-09-04.295812,"84.84,53.46"
2024-05-28_13-09-04.328450,"70.53,80.29"
2024-05-28_13-09-04.361258,"82.58,81.62"
2024-05-28_13-09-04.393856,"72.34,84.99"
2024-05-28_13-09-04.426571,"85.68,69.80"
2024-05-28_13-09-04.455631,"86.89,82.75"
2024-05-28_13-09-04.490459,"105.21,88.18"
2024-05-28_13-09-04.521031,"81.46,75.57"
2024-05-28_13-09-04.554165,"111.68,53.95"
2024-05-28_13-09-04.586495,"102.14,58.05"
2024-05-28_13-09-04.619230,"75.57,49.08"
2024-05-28_13-09-04.651847,"69.45,61.42"
2024-05-28_13-09-04.680608,"70.32,58.65"
2024-05-28_13-09-04.713369,"66.84,85.18"
2024-05-28_13-09-04.746235,"78.38,87.85"
2024-05-28_13-09-04.778976,"75.40,80.44"
2024-05-28_13-09-04.811656,"95.45,94.62"
2024-05-28_13-09-04.844682,"86.69,86.67"
2024-05-28_13-09-04.877058,"83.51,86.44"
2024-05-28_13-09-04.905888,"101.45,80.33"
2024-05-28_13-09-04.938749,"96.90,82.97"
2024-05-28_13-09-04.971450,"109.23,54.35"
2024-05-28_13-09-05.004107,"79.92,53.85"
2024-05-28_13-09-05.036912,"64.94,56.87"
2024-05-28_13-09-05.069624,"72.79,62.06"
2024-05-28_13-09-05.102351,"76.64,80.80"
2024-05-28_13-09-05.131166,"72.12,90.80"
2024-05-28_13-09-05.163895,"64.59,84.11"
2024-05-28_13-09-05.196724,"87.24,84.84"
2024-05-28_13-09-05.229427,"99.68,96.25"
2024-05-28_13-09-05.262186,"90.13,78.33"
2024-05-28_13-09-05.294880,"97.74,84.80"
2024-05-28_13-09-05.327644,"89.09,58.96"
2024-05-28_13-09-05.356494,"104.56,47.56"
2024-05-28_13-09-05.389162,"88.13,58.70"
2024-05-28_13-09-05.421887,"57.12,58.27"
2024-05-28_13-09-05.454622,"79.53,55.67"
2024-05-28_13-09-05.487448,"76.15,90.06"
2024-05-28_13-09-05.520114,"80.54,81.73"
2024-05-28_13-09-05.552826,"86.82,92.77"
2024-05-28_13-09-05.581589,"89.14,81.39"
2024-05-28_13-09-05.614442,"93.47,88.49"
2024-05-28_13-09-05.647141,"104.39,77.09"
2024-05-28_13-09-05.680133,"93.13,90.74"
2024-05-28_13-09-05.712734,"105.49,53.63"
2024-05-28_13-09-05.745383,"100.27,52.27"
2024-05-28_13-09-05.778097,"71.89,55.00"
2024-05-28_13-09-05.806817,"60.36,61.72"
2024-05-28_13-09-05.839611,"84.66,59.34"
2024-05-28_13-09-05.872427,"63.86,91.94"
2024-05-28_13-09-05.905161,"83.25,79.56"
2024-05-28_13-09-05.937889,"74.72,84.50"
2024-05-28_13-09-05.970664,"97.66,90.23"
2024-05-28_13-09-06.003391,"86.50,87.42"
2024-05-28_13-09-06.032109,"103.85,77.89"
2024-05-28_13-09-06.064840,"96.65,79.88"
2024-05-28_13-09-06.097669,"106.46,64.98"
2024-05-28_13-09-06.130404,"99.77,57.52"
2024-05-28_13-09-06.163145,"60.48,57.13"
2024-05-28_13-09-06.195904,"69.39,56.39"
2024-05-28_13-09-06.228582,"83.00,72.73"
2024-05-28_13-09-06.257495,"72.64,81.57"
2024-05-28_13-09-06.290213,"77.47,95.57"
2024-05-28_13-09-06.323692,"77.35,88.55"
2024-05-28_13-09-06.355828,"67.21,95.19"
2024-05-28_13-09-06.388460,"78.90,88.83"
2024-05-28_13-09-06.421197,"77.09,92.42"
2024-05-28_13-09-06.454068,"97.61,59.57"
2024-05-28_13-09-06.482678,"89.81,53.07"
2024-05-28_13-09-06.515751,"86.47,55.54"
2024-05-28_13-09-06.549231,"81.52,59.35"
2024-05-28_13-09-06.580982,"79.45,57.32"
2024-05-28_13-09-06.613720,"79.29,65.26"
2024-05-28_13-09-06.646440,"71.29,71.81"
2024-05-28_13-09-06.679236,"74.86,91.91"
2024-05-28_13-09-06.711912,"64.67,100.92"
2024-05-28_13-09-06.740701,"76.48,95.17"
2024-05-28_13-09-06.773541,"87.13,87.30"
2024-05-28_13-09-06.806232,"90.20,77.24"
2024-05-28_13-09-06.838926,"103.63,63.37"
2024-05-28_13-09-06.871641,"95.12,58.63"
2024-05-28_13-09-06.904373,"85.42,56.04"
2024-05-28_13-09-06.942004,"82.02,54.72"
2024-05-28_13-09-06.965934,"88.10,56.09"
2024-05-28_13-09-06.998724,"77.42,67.21"
2024-05-28_13-09-07.031484,"62.08,91.40"
2024-05-28_13-09-07.064284,"77.08,86.03"
2024-05-28_13-09-07.097303,"67.57,96.45"
2024-05-28_13-09-07.129647,"74.93,91.99"
2024-05-28_13-09-07.162311,"77.00,92.75"
2024-05-28_13-09-07.191265,"77.85,82.19"
2024-05-28_13-09-07.223966,"75.89,56.06"
2024-05-28_13-09-07.257057,"83.68,57.19"
2024-05-28_13-09-07.312721,"89.95,59.86"
2024-05-28_13-09-07.328966,"72.77,57.04"
2024-05-28_13-09-07.355122,"94.49,55.55"
2024-05-28_13-09-07.388716,"83.15,59.00"
2024-05-28_13-09-07.416821,"76.47,74.60"
2024-05-28_13-09-07.449280,"63.98,92.64"
2024-05-28_13-09-07.491049,"63.39,90.34"
2024-05-28_13-09-07.514805,"71.43,91.65"
2024-05-28_13-09-07.547479,"78.88,93.58"
2024-05-28_13-09-07.580068,"75.11,95.71"
2024-05-28_13-09-07.612855,"88.89,55.26"
2024-05-28_13-09-07.641706,"78.28,56.50"
2024-05-28_13-09-07.674482,"74.77,56.79"
2024-05-28_13-09-07.707495,"77.79,59.42"
2024-05-28_13-09-07.740023,"88.61,48.76"
2024-05-28_13-09-07.772774,"73.83,72.66"
2024-05-28_13-09-07.805617,"73.17,72.80"
2024-05-28_13-09-07.838158,"68.83,75.42"
2024-05-28_13-09-07.866889,"78.69,94.14"
2024-05-28_13-09-07.899836,"77.21,82.94"
2024-05-28_13-09-07.932446,"78.05,100.12"
2024-05-28_13-09-07.965372,"84.66,82.95"
2024-05-28_13-09-07.998074,"69.63,60.93"
2024-05-28_13-09-08.030745,"85.47,60.35"
2024-05-28_13-09-08.063431,"71.34,56.39"
2024-05-28_13-09-08.093234,"78.79,56.65"
2024-05-28_13-09-08.124914,"87.39,56.16"
2024-05-28_13-09-08.158360,"74.86,75.57"
2024-05-28_13-09-08.190443,"67.45,79.71"
2024-05-28_13-09-08.223221,"76.24,89.81"
2024-05-28_13-09-08.255957,"67.26,96.99"
2024-05-28_13-09-08.288684,"73.73,95.03"
2024-05-28_13-09-08.317467,"70.35,97.56"
2024-05-28_13-09-08.350141,"87.65,82.64"
2024-05-28_13-09-08.383485,"76.16,57.61"
2024-05-28_13-09-08.415715,"84.42,58.34"
2024-05-28_13-09-08.448760,"84.69,59.76"
2024-05-28_13-09-08.481267,"79.33,48.99"
2024-05-28_13-09-08.514198,"80.78,67.87"
2024-05-28_13-09-08.542744,"72.78,72.38"
2024-05-28_13-09-08.575382,"71.33,73.91"
2024-05-28_13-09-08.608343,"73.19,85.82"
2024-05-28_13-09-08.641759,"66.79,87.73"
2024-05-28_13-09-08.675060,"76.33,101.64"
2024-05-28_13-09-08.706500,"83.53,84.45"
2024-05-28_13-09-08.746461,"71.54,80.97"
2024-05-28_13-09-08.769352,"77.15,63.04"
2024-05-28_13-09-08.802328,"90.52,56.38"
2024-05-28_13-09-08.835813,"69.96,57.08"
2024-05-28_13-09-08.866223,"79.67,54.93"
2024-05-28_13-09-08.898967,"88.57,57.35"
2024-05-28_13-09-08.934497,"73.52,79.89"
2024-05-28_13-09-08.966963,"74.18,76.72"
2024-05-28_13-09-08.994041,"67.61,98.03"
2024-05-28_13-09-09.026133,"74.29,87.57"
2024-05-28_13-09-09.058864,"66.87,101.47"
2024-05-28_13-09-09.092539,"91.33,95.56"
2024-05-28_13-09-09.124222,"78.88,68.54"
2024-05-28_13-09-09.156895,"82.65,58.02"
2024-05-28_13-09-09.189769,"79.79,59.63"
2024-05-28_13-09-09.219053,"79.39,48.44"
2024-05-28_13-09-09.251215,"86.66,60.51"
2024-05-28_13-09-09.284357,"82.44,62.82"
2024-05-28_13-09-09.317642,"70.28,74.74"
2024-05-28_13-09-09.349410,"70.92,72.70"
2024-05-28_13-09-09.382167,"65.89,87.50"
2024-05-28_13-09-09.415678,"76.45,103.77"
2024-05-28_13-09-09.443784,"77.38,86.02"
2024-05-28_13-09-09.476558,"75.08,90.38"
2024-05-28_13-09-09.511493,"86.38,67.43"
2024-05-28_13-09-09.541967,"91.64,57.75"
2024-05-28_13-09-09.574670,"77.93,57.16"
2024-05-28_13-09-09.607477,"70.62,54.64"
2024-05-28_13-09-09.640103,"78.79,55.35"
2024-05-28_13-09-09.669006,"84.13,71.12"
2024-05-28_13-09-09.701567,"73.19,74.34"
2024-05-28_13-09-09.734354,"66.60,87.27"
2024-05-28_13-09-09.767648,"87.92,88.34"
2024-05-28_13-09-09.800168,"67.81,93.04"
2024-05-28_13-09-09.832850,"81.70,106.71"
2024-05-28_13-09-09.865334,"74.48,84.22"
2024-05-28_13-09-09.894409,"82.77,60.14"
2024-05-28_13-09-09.927820,"91.21,60.32"
2024-05-28_13-09-09.959934,"73.52,49.54"
2024-05-28_13-09-09.992452,"90.36,60.21"
2024-05-28_13-09-10.025201,"78.86,58.39"
2024-05-28_13-09-10.057958,"77.20,77.01"
2024-05-28_13-09-10.090580,"72.60,71.55"
2024-05-28_13-09-10.123579,"65.43,87.13"
2024-05-28_13-09-10.152154,"65.11,103.42"
2024-05-28_13-09-10.185270,"77.27,90.95"
2024-05-28_13-09-10.217576,"71.96,92.27"
2024-05-28_13-09-10.250808,"82.20,78.36"
2024-05-28_13-09-10.283151,"83.77,58.63"
2024-05-28_13-09-10.315856,"110.31,55.33"
2024-05-28_13-09-10.348535,"87.04,54.09"
2024-05-28_13-09-10.377362,"76.31,55.11"
2024-05-28_13-09-10.410235,"76.10,59.55"
2024-05-28_13-09-10.442853,"76.18,62.07"
2024-05-28_13-09-10.475551,"74.81,89.19"
2024-05-28_13-09-10.508377,"73.31,81.11"
2024-05-28_13-09-10.541002,"88.59,84.48"
2024-05-28_13-09-10.573879,"99.24,76.76"
2024-05-28_13-09-10.602863,"88.01,80.64"
2024-05-28_13-09-10.635529,"89.61,78.83"
2024-05-28_13-09-10.668241,"88.24,59.30"
2024-05-28_13-09-10.700855,"102.89,47.33"
2024-05-28_13-09-10.733676,"80.25,60.55"
2024-05-28_13-09-10.766321,"56.87,58.62"
2024-05-28_13-09-10.799011,"79.45,54.84"
2024-05-28_13-09-10.827812,"75.58,90.09"
2024-05-28_13-09-10.860573,"78.87,82.87"
2024-05-28_13-09-10.893334,"66.88,96.15"
2024-05-28_13-09-10.926084,"86.45,82.27"
2024-05-28_13-09-10.958949,"92.05,89.40"
2024-05-28_13-09-10.991539,"103.93,78.27"
2024-05-28_13-09-11.024242,"92.20,89.30"
2024-05-28_13-09-11.053082,"106.56,53.33"
2024-05-28_13-09-11.085921,"104.62,52.77"
2024-05-28_13-09-11.118680,"74.69,55.35"
2024-05-28_13-09-11.151486,"67.44,59.79"
2024-05-28_13-09-11.184232,"85.78,58.35"
2024-05-28_13-09-11.217022,"63.72,78.07"
2024-05-28_13-09-11.249671,"80.31,82.90"
2024-05-28_13-09-11.278505,"67.14,98.86"
2024-05-28_13-09-11.311081,"87.83,99.00"
2024-05-28_13-09-11.343874,"87.88,89.72"
2024-05-28_13-09-11.376624,"103.74,82.09"
2024-05-28_13-09-11.409358,"100.28,72.24"
2024-05-28_13-09-11.442084,"95.90,48.73"
2024-05-28_13-09-11.474859,"100.59,59.97"
2024-05-28_13-09-11.503653,"63.75,57.37"
2024-05-28_13-09-11.536325,"77.47,56.41"
2024-05-28_13-09-11.569210,"84.24,58.18"
2024-05-28_13-09-11.601871,"72.91,80.26"
2024-05-28_13-09-11.634609,"79.39,97.31"
2024-05-28_13-09-11.667338,"72.96,73.03"
2024-05-28_13-09-11.699991,"85.02,84.92"
2024-05-28_13-09-11.728808,"100.36,85.09"
2024-05-28_13-09-11.761561,"87.68,81.67"
2024-05-28_13-09-11.794301,"104.57,69.36"
2024-05-28_13-09-11.827054,"105.66,52.59"
2024-05-28_13-09-11.859832,"85.91,55.99"
2024-05-28_13-09-11.892567,"64.79,61.66"
2024-05-28_13-09-11.925270,"76.85,58.23"
2024-05-28_13-09-11.954021,"70.93,59.26"
2024-05-28_13-09-11.986797,"69.87,82.65"
2024-05-28_13-09-12.019522,"87.40,87.82"
2024-05-28_13-09-12.052290,"86.48,81.33"
2024-05-28_13-09-12.085092,"84.39,87.70"
2024-05-28_13-09-12.117836,"93.87,82.62"
2024-05-28_13-09-12.166385,"93.79,76.96"
2024-05-28_13-09-12.179379,"84.54,52.04"
2024-05-28_13-09-12.212022,"86.63,60.56"
2024-05-28_13-09-12.245049,"76.85,57.73"
2024-05-28_13-09-12.277680,"86.67,56.12"
2024-05-28_13-09-12.310324,"80.75,70.16"
2024-05-28_13-09-12.343094,"75.53,67.01"
2024-05-28_13-09-12.375753,"68.52,99.48"
2024-05-28_13-09-12.404495,"66.01,86.65"
2024-05-28_13-09-12.437250,"83.63,88.57"
2024-05-28_13-09-12.470461,"93.95,90.96"
2024-05-28_13-09-12.502814,"94.07,86.07"
2024-05-28_13-09-12.535553,"94.50,59.93"
2024-05-28_13-09-12.568917,"104.13,53.18"
2024-05-28_13-09-12.603326,"98.68,56.21"
2024-05-28_13-09-12.630639,"87.59,60.40"
2024-05-28_13-09-12.662580,"83.69,57.95"
2024-05-28_13-09-12.695344,"75.96,67.18"
2024-05-28_13-09-12.728295,"74.24,72.55"
2024-05-28_13-09-12.760913,"78.85,75.79"
2024-05-28_13-09-12.793603,"63.04,95.70"
2024-05-28_13-09-12.826386,"74.92,95.43"
2024-05-28_13-09-12.859093,"80.71,89.94"
2024-05-28_13-09-12.887881,"85.12,88.04"
2024-05-28_13-09-12.921384,"84.19,55.36"
2024-05-28_13-09-12.953321,"92.33,59.60"
2024-05-28_13-09-12.986116,"66.58,58.49"
2024-05-28_13-09-13.018949,"83.65,55.75"
2024-05-28_13-09-13.051778,"82.89,96.72"
2024-05-28_13-09-13.084708,"75.82,72.18"
2024-05-28_13-09-13.113044,"64.71,80.71"
2024-05-28_13-09-13.147874,"76.07,88.22"
2024-05-28_13-09-13.178622,"88.18,85.72"
2024-05-28_13-09-13.211307,"89.06,91.21"
2024-05-28_13-09-13.244029,"90.95,83.24"
2024-05-28_13-09-13.276769,"99.73,85.98"
2024-05-28_13-09-13.309456,"100.45,69.78"
2024-05-28_13-09-13.338243,"104.38,52.23"
2024-05-28_13-09-13.371208,"89.17,58.06"
2024-05-28_13-09-13.404110,"66.61,56.35"
2024-05-28_13-09-13.436781,"86.35,68.07"
2024-05-28_13-09-13.469346,"75.01,71.27"
2024-05-28_13-09-13.502113,"82.53,92.03"
2024-05-28_13-09-13.534742,"64.90,93.66"
2024-05-28_13-09-13.563664,"81.44,83.99"
2024-05-28_13-09-13.596360,"89.73,89.69"
2024-05-28_13-09-13.629019,"97.58,76.41"
2024-05-28_13-09-13.661885,"101.45,84.94"
2024-05-28_13-09-13.694625,"96.28,58.27"
2024-05-28_13-09-13.727296,"88.87,55.10"
2024-05-28_13-09-13.760005,"77.34,54.89"
2024-05-28_13-09-13.792455,"60.63,59.57"
2024-05-28_13-09-13.825057,"85.04,79.15"
2024-05-28_13-09-13.856208,"66.66,91.42"
2024-05-28_13-09-13.890851,"74.11,87.06"
2024-05-28_13-09-13.942276,"71.59,94.32"
2024-05-28_13-09-13.953661,"75.06,91.48"
2024-05-28_13-09-13.985494,"75.44,92.47"
2024-05-28_13-09-14.014122,"76.57,82.23"
2024-05-28_13-09-14.046814,"96.74,68.93"
2024-05-28_13-09-14.079615,"89.08,69.53"
2024-05-28_13-09-14.112531,"104.71,57.74"
2024-05-28_13-09-14.145082,"70.41,55.81"
2024-05-28_13-09-14.177803,"69.95,54.59"
2024-05-28_13-09-14.210557,"82.32,57.77"
2024-05-28_13-09-14.239360,"73.73,91.96"
2024-05-28_13-09-14.272063,"79.61,93.06"
2024-05-28_13-09-14.304794,"75.49,84.15"
2024-05-28_13-09-14.337588,"91.40,78.61"
2024-05-28_13-09-14.370325,"90.11,83.74"
2024-05-28_13-09-14.403155,"107.32,77.30"
2024-05-28_13-09-14.435824,"111.11,70.70"
2024-05-28_13-09-14.464641,"93.75,54.81"
2024-05-28_13-09-14.497307,"89.53,54.55"
2024-05-28_13-09-14.530266,"64.86,58.56"
2024-05-28_13-09-14.562828,"77.52,49.90"
2024-05-28_13-09-14.595609,"67.09,64.08"
2024-05-28_13-09-14.628397,"75.14,80.43"
2024-05-28_13-09-14.661099,"73.13,93.42"
2024-05-28_13-09-14.689836,"89.31,86.07"
2024-05-28_13-09-14.723927,"83.15,92.91"
2024-05-28_13-09-14.755456,"88.20,90.91"
2024-05-28_13-09-14.788104,"74.67,67.02"
2024-05-28_13-09-14.820772,"105.46,54.83"
2024-05-28_13-09-14.853553,"102.67,56.17"
2024-05-28_13-09-14.886295,"74.47,56.02"
2024-05-28_13-09-14.915022,"68.30,56.08"
2024-05-28_13-09-14.947743,"85.07,57.54"
2024-05-28_13-09-14.980719,"73.23,98.24"
2024-05-28_13-09-15.013333,"73.48,96.24"
2024-05-28_13-09-15.046097,"69.98,85.69"
2024-05-28_13-09-15.079008,"84.00,83.30"
2024-05-28_13-09-15.131770,"83.52,90.98"
2024-05-28_13-09-15.162511,"89.99,94.17"
2024-05-28_13-09-15.177045,"92.59,70.55"
2024-05-28_13-09-15.206567,"77.47,55.82"
2024-05-28_13-09-15.238706,"73.71,56.08"
2024-05-28_13-09-15.271410,"71.50,58.56"
2024-05-28_13-09-15.304175,"79.72,50.72"
2024-05-28_13-09-15.336779,"73.54,89.19"
2024-05-28_13-09-15.376132,"68.47,73.18"
2024-05-28_13-09-15.398641,"74.26,92.27"
2024-05-28_13-09-15.431141,"75.22,95.64"
2024-05-28_13-09-15.463841,"75.83,92.30"
2024-05-28_13-09-15.496721,"97.99,90.92"
2024-05-28_13-09-15.529627,"92.79,76.91"
2024-05-28_13-09-15.562009,"97.65,67.35"
2024-05-28_13-09-15.594745,"104.71,57.08"
2024-05-28_13-09-15.623513,"88.90,54.30"
2024-05-28_13-09-15.656363,"71.72,55.47"
2024-05-28_13-09-15.689032,"76.43,55.95"
2024-05-28_13-09-15.721799,"76.53,81.96"
2024-05-28_13-09-15.754636,"71.70,86.15"
2024-05-28_13-09-15.787294,"85.78,81.34"
2024-05-28_13-09-15.815981,"91.18,81.86"
2024-05-28_13-09-15.848887,"87.67,64.86"
2024-05-28_13-09-15.881601,"92.73,84.38"
2024-05-28_13-09-15.914329,"107.20,85.35"
2024-05-28_13-09-15.947061,"74.70,71.35"
2024-05-28_13-09-15.979864,"106.58,52.53"
2024-05-28_13-09-16.012738,"92.10,56.58"
2024-05-28_13-09-16.045227,"74.36,48.96"
2024-05-28_13-09-16.074032,"72.67,59.35"
2024-05-28_13-09-16.106854,"76.97,59.84"
2024-05-28_13-09-16.139799,"70.32,91.36"
2024-05-28_13-09-16.172384,"88.73,85.51"
2024-05-28_13-09-16.205086,"82.14,77.76"
2024-05-28_13-09-16.237816,"100.89,88.76"
2024-05-28_13-09-16.270498,"95.64,75.96"
2024-05-28_13-09-16.299280,"95.09,83.32"
2024-05-28_13-09-16.332039,"106.00,72.63"
2024-05-28_13-09-16.364883,"96.50,53.86"
2024-05-28_13-09-16.397626,"85.09,54.64"
2024-05-28_13-09-16.430327,"63.89,55.51"
2024-05-28_13-09-16.463060,"80.37,54.15"
2024-05-28_13-09-16.495880,"72.75,100.27"
2024-05-28_13-09-16.524576,"78.24,82.90"
2024-05-28_13-09-16.557304,"67.61,87.01"
2024-05-28_13-09-16.590124,"88.36,80.73"
2024-05-28_13-09-16.622840,"91.73,90.74"
2024-05-28_13-09-16.655631,"101.47,85.80"
2024-05-28_13-09-16.688404,"92.84,80.44"
2024-05-28_13-09-16.720983,"107.04,52.88"
2024-05-28_13-09-16.749775,"96.91,56.92"
2024-05-28_13-09-16.782565,"71.09,49.17"
2024-05-28_13-09-16.815343,"66.32,61.03"
2024-05-28_13-09-16.848066,"78.19,59.99"
2024-05-28_13-09-16.880859,"69.24,74.41"
2024-05-28_13-09-16.913632,"92.20,84.26"
2024-05-28_13-09-16.946363,"83.96,77.32"
2024-05-28_13-09-16.975040,"99.59,88.75"
2024-05-28_13-09-17.007831,"93.78,76.57"
2024-05-28_13-09-17.040574,"96.42,82.12"
2024-05-28_13-09-17.073368,"109.26,73.26"
2024-05-28_13-09-17.106101,"96.96,53.68"
2024-05-28_13-09-17.138859,"84.84,54.20"
2024-05-28_13-09-17.171511,"61.67,56.16"
2024-05-28_13-09-17.200343,"80.57,55.47"
2024-05-28_13-09-17.233045,"71.57,99.52"
2024-05-28_13-09-17.265834,"82.53,80.91"
2024-05-28_13-09-17.298595,"75.47,83.16"
2024-05-28_13-09-17.331331,"86.80,80.43"
2024-05-28_13-09-17.364085,"93.86,85.51"
2024-05-28_13-09-17.396766,"104.76,84.37"
2024-05-28_13-09-17.425534,"70.58,67.97"
2024-05-28_13-09-17.458342,"107.21,52.36"
2024-05-28_13-09-17.491149,"96.60,57.12"
2024-05-28_13-09-17.523981,"72.64,48.63"
2024-05-28_13-09-17.556654,"75.13,59.50"
2024-05-28_13-09-17.589527,"77.73,85.42"
2024-05-28_13-09-17.622038,"65.80,80.28"
2024-05-28_13-09-17.650912,"93.05,83.51"
2024-05-28_13-09-17.683582,"79.71,78.48"
2024-05-28_13-09-17.716330,"95.62,79.21"
2024-05-28_13-09-17.749075,"94.50,77.80"
2024-05-28_13-09-17.781849,"96.31,83.89"
2024-05-28_13-09-17.814617,"107.94,73.57"
2024-05-28_13-09-17.847303,"95.09,54.23"
2024-05-28_13-09-17.876040,"83.42,53.98"
2024-05-28_13-09-17.908816,"61.24,56.59"
2024-05-28_13-09-17.941582,"79.76,54.07"
2024-05-28_13-09-17.974313,"70.02,83.69"
2024-05-28_13-09-18.007112,"85.28,80.54"
2024-05-28_13-09-18.039871,"80.97,81.18"
2024-05-28_13-09-18.072565,"88.25,80.16"
2024-05-28_13-09-18.105265,"92.89,88.12"
2024-05-28_13-09-18.134077,"104.64,82.95"
2024-05-28_13-09-18.166822,"96.25,69.24"
2024-05-28_13-09-18.199584,"106.49,52.49"
2024-05-28_13-09-18.232318,"93.68,56.55"
2024-05-28_13-09-18.265214,"68.83,50.20"
2024-05-28_13-09-18.297828,"66.03,61.31"
2024-05-28_13-09-18.330515,"78.14,58.99"
2024-05-28_13-09-18.359333,"67.97,75.98"
2024-05-28_13-09-18.392078,"82.81,83.11"
2024-05-28_13-09-18.424840,"84.59,76.78"
2024-05-28_13-09-18.457783,"99.72,86.73"
2024-05-28_13-09-18.490382,"97.09,76.07"
2024-05-28_13-09-18.523067,"94.79,87.95"
2024-05-28_13-09-18.555747,"109.59,57.65"
2024-05-28_13-09-18.584575,"100.87,53.97"
2024-05-28_13-09-18.617347,"77.40,54.22"
2024-05-28_13-09-18.650333,"61.42,56.15"
2024-05-28_13-09-18.682941,"79.94,53.73"
2024-05-28_13-09-18.715646,"71.67,81.05"
2024-05-28_13-09-18.748328,"83.21,81.52"
2024-05-28_13-09-18.781037,"79.89,82.03"
2024-05-28_13-09-18.809855,"86.60,79.45"
2024-05-28_13-09-18.842599,"92.95,85.75"
2024-05-28_13-09-18.875355,"104.94,84.54"
2024-05-28_13-09-18.908147,"94.85,68.83"
2024-05-28_13-09-18.940996,"106.80,52.87"
2024-05-28_13-09-18.975996,"96.95,57.06"
2024-05-28_13-09-19.006405,"73.62,49.10"
2024-05-28_13-09-19.035134,"91.75,61.27"
2024-05-28_13-09-19.068038,"73.51,64.97"
2024-05-28_13-09-19.100727,"73.83,89.62"
2024-05-28_13-09-19.133463,"73.44,87.24"
2024-05-28_13-09-19.166133,"79.24,79.15"
2024-05-28_13-09-19.198900,"100.72,97.59"
2024-05-28_13-09-19.231527,"96.05,76.57"
2024-05-28_13-09-19.260369,"94.50,85.61"
2024-05-28_13-09-19.293218,"108.47,58.26"
2024-05-28_13-09-19.325895,"96.01,54.25"
2024-05-28_13-09-19.358853,"83.54,54.16"
2024-05-28_13-09-19.391416,"62.64,55.90"
2024-05-28_13-09-19.424173,"80.18,54.20"
2024-05-28_13-09-19.456864,"72.51,98.70"
2024-05-28_13-09-19.485597,"81.10,81.43"
2024-05-28_13-09-19.518400,"86.28,84.48"
2024-05-28_13-09-19.551205,"85.02,81.19"
2024-05-28_13-09-19.584071,"90.62,87.94"
2024-05-28_13-09-19.616791,"92.07,91.17"
2024-05-28_13-09-19.649390,"95.28,70.02"
2024-05-28_13-09-19.682136,"106.30,53.29"
2024-05-28_13-09-19.710852,"98.37,56.75"
2024-05-28_13-09-19.743616,"68.00,50.23"
2024-05-28_13-09-19.776401,"66.29,61.46"
2024-05-28_13-09-19.809189,"75.51,88.92"
2024-05-28_13-09-19.841890,"71.48,78.69"
2024-05-28_13-09-19.874626,"92.19,84.59"
2024-05-28_13-09-19.907299,"85.52,76.53"
2024-05-28_13-09-19.936133,"101.61,97.46"
2024-05-28_13-09-19.968975,"95.63,74.73"
2024-05-28_13-09-20.001684,"96.75,85.87"
2024-05-28_13-09-20.034392,"109.65,58.74"
2024-05-28_13-09-20.067145,"103.38,54.10"
2024-05-28_13-09-20.099870,"82.26,53.59"
2024-05-28_13-09-20.132579,"61.18,56.60"
2024-05-28_13-09-20.161325,"79.82,54.71"
2024-05-28_13-09-20.194151,"71.16,83.57"
2024-05-28_13-09-20.226856,"84.99,80.65"
2024-05-28_13-09-20.259619,"90.03,82.08"
2024-05-28_13-09-20.292417,"87.09,79.81"
2024-05-28_13-09-20.325116,"93.11,86.12"
2024-05-28_13-09-20.357839,"113.32,82.37"
2024-05-28_13-09-20.386616,"73.86,68.90"
2024-05-28_13-09-20.419408,"105.32,52.65"
2024-05-28_13-09-20.452213,"88.74,56.86"
2024-05-28_13-09-20.484861,"67.20,49.93"
2024-05-28_13-09-20.517690,"79.28,61.86"
2024-05-28_13-09-20.550428,"75.03,88.29"
2024-05-28_13-09-20.583075,"75.44,88.71"
2024-05-28_13-09-20.611868,"80.90,84.49"
2024-05-28_13-09-20.644641,"82.45,78.07"
2024-05-28_13-09-20.677376,"98.48,96.05"
2024-05-28_13-09-20.710211,"96.71,75.22"
2024-05-28_13-09-20.742978,"97.25,88.58"
2024-05-28_13-09-20.775630,"89.39,58.85"
2024-05-28_13-09-20.808382,"96.00,54.70"
2024-05-28_13-09-20.837133,"77.33,55.01"
2024-05-28_13-09-20.869842,"61.43,56.63"
2024-05-28_13-09-20.902669,"79.19,53.60"
2024-05-28_13-09-20.935475,"75.03,93.28"
2024-05-28_13-09-20.968222,"69.89,83.80"
2024-05-28_13-09-21.001040,"81.71,86.33"
2024-05-28_13-09-21.033797,"85.73,85.18"
2024-05-28_13-09-21.062389,"93.60,85.81"
2024-05-28_13-09-21.095158,"110.33,79.29"
2024-05-28_13-09-21.135965,"96.25,55.70"
2024-05-28_13-09-21.160778,"95.83,54.61"
2024-05-28_13-09-21.193490,"69.05,59.65"
2024-05-28_13-09-21.226234,"67.68,48.18"
2024-05-28_13-09-21.258873,"74.67,90.06"
2024-05-28_13-09-21.291578,"68.04,84.27"
2024-05-28_13-09-21.320466,"80.83,88.49"
2024-05-28_13-09-21.353149,"93.22,85.69"
2024-05-28_13-09-21.385998,"84.66,76.62"
2024-05-28_13-09-21.418688,"97.46,88.53"
2024-05-28_13-09-21.451423,"97.47,79.79"
2024-05-28_13-09-21.484112,"103.02,81.20"
2024-05-28_13-09-21.516843,"112.22,57.08"
2024-05-28_13-09-21.545645,"83.31,54.72"
2024-05-28_13-09-21.578419,"71.67,55.25"
2024-05-28_13-09-21.611169,"78.64,55.94"
2024-05-28_13-09-21.643940,"74.00,98.26"
2024-05-28_13-09-21.676703,"78.37,93.10"
2024-05-28_13-09-21.709535,"85.52,84.26"
2024-05-28_13-09-21.742079,"89.12,83.12"
2024-05-28_13-09-21.770886,"89.03,88.54"
2024-05-28_13-09-21.803645,"101.75,86.52"
2024-05-28_13-09-21.836376,"107.31,80.77"
2024-05-28_13-09-21.869147,"88.77,54.61"
2024-05-28_13-09-21.901898,"102.35,52.66"
2024-05-28_13-09-21.934644,"70.84,57.86"
2024-05-28_13-09-21.967364,"77.84,51.25"
2024-05-28_13-09-21.996126,"70.44,81.55"
2024-05-28_13-09-22.028887,"69.71,81.99"
2024-05-28_13-09-22.061636,"88.95,84.48"
2024-05-28_13-09-22.094526,"84.09,71.99"
2024-05-28_13-09-22.127249,"86.31,81.22"
2024-05-28_13-09-22.159999,"98.67,85.88"
2024-05-28_13-09-22.192693,"83.37,76.39"
2024-05-28_13-09-22.221464,"105.77,54.07"
2024-05-28_13-09-22.254127,"108.41,56.40"
2024-05-28_13-09-22.286918,"70.39,56.50"
2024-05-28_13-09-22.319687,"66.85,55.94"
2024-05-28_13-09-22.352445,"82.14,58.62"
2024-05-28_13-09-22.385187,"73.01,74.95"
2024-05-28_13-09-22.417877,"87.48,90.07"
2024-05-28_13-09-22.453619,"88.04,83.91"
2024-05-28_13-09-22.479817,"80.46,94.94"
2024-05-28_13-09-22.512224,"86.61,82.34"
2024-05-28_13-09-22.544949,"96.23,82.28"
2024-05-28_13-09-22.578053,"95.41,73.04"
2024-05-28_13-09-22.610449,"96.42,55.03"
2024-05-28_13-09-22.643119,"79.66,55.21"
2024-05-28_13-09-22.671859,"59.83,60.18"
2024-05-28_13-09-22.704736,"86.00,51.09"
2024-05-28_13-09-22.737405,"62.12,84.09"
2024-05-28_13-09-22.770209,"84.72,79.75"
2024-05-28_13-09-22.802959,"81.13,82.57"
2024-05-28_13-09-22.835682,"95.54,81.38"
2024-05-28_13-09-22.868414,"91.66,84.06"
2024-05-28_13-09-22.897181,"98.71,85.04"
2024-05-28_13-09-22.929928,"99.41,70.40"
2024-05-28_13-09-22.962688,"96.00,52.94"
2024-05-28_13-09-22.995429,"87.95,58.20"
2024-05-28_13-09-23.028195,"61.94,58.33"
2024-05-28_13-09-23.060980,"76.72,55.08"
2024-05-28_13-09-23.093878,"72.33,61.82"
2024-05-28_13-09-23.125811,"81.46,92.41"
2024-05-28_13-09-23.155419,"63.93,102.04"
2024-05-28_13-09-23.188004,"77.79,95.60"
2024-05-28_13-09-23.220738,"92.35,82.87"
2024-05-28_13-09-23.253469,"92.00,77.06"
2024-05-28_13-09-23.286222,"100.90,77.73"
2024-05-28_13-09-23.318911,"108.23,56.88"
2024-05-28_13-09-23.347678,"78.97,55.23"
2024-05-28_13-09-23.380423,"70.90,56.24"
2024-05-28_13-09-23.413210,"73.37,59.90"
2024-05-28_13-09-23.446015,"77.86,51.21"
2024-05-28_13-09-23.478778,"73.16,94.51"
2024-05-28_13-09-23.511586,"86.21,82.04"
2024-05-28_13-09-23.544184,"85.30,85.38"
2024-05-28_13-09-23.572908,"97.09,78.63"
2024-05-28_13-09-23.605677,"92.49,85.03"
2024-05-28_13-09-23.638497,"97.50,82.04"
2024-05-28_13-09-23.671203,"104.64,52.15"
2024-05-28_13-09-23.703983,"88.44,52.88"
2024-05-28_13-09-23.736718,"66.69,61.36"
2024-05-28_13-09-23.769464,"75.26,58.76"
2024-05-28_13-09-23.798230,"71.09,70.69"
2024-05-28_13-09-23.831020,"73.76,82.20"
2024-05-28_13-09-23.863737,"81.28,88.13"
2024-05-28_13-09-23.896539,"100.18,78.73"
2024-05-28_13-09-23.929220,"86.24,90.70"
2024-05-28_13-09-23.961942,"102.35,78.02"
2024-05-28_13-09-23.994689,"95.08,78.04"
2024-05-28_13-09-24.023391,"99.77,64.81"
2024-05-28_13-09-24.056240,"104.67,56.30"
2024-05-28_13-09-24.089034,"61.84,57.22"
2024-05-28_13-09-24.121714,"70.71,53.98"
2024-05-28_13-09-24.154464,"83.23,69.68"
2024-05-28_13-09-24.187233,"72.41,82.44"
2024-05-28_13-09-24.219953,"88.05,90.52"
2024-05-28_13-09-24.248659,"77.02,82.02"
2024-05-28_13-09-24.281484,"93.71,78.91"
2024-05-28_13-09-24.314204,"100.60,80.62"
2024-05-28_13-09-24.346955,"89.38,82.64"
2024-05-28_13-09-24.379718,"104.39,68.72"
2024-05-28_13-09-24.412505,"98.50,51.96"
2024-05-28_13-09-24.445206,"78.04,53.65"
2024-05-28_13-09-24.473990,"60.99,61.00"
2024-05-28_13-09-24.506783,"84.51,58.98"
2024-05-28_13-09-24.539677,"67.25,75.16"
2024-05-28_13-09-24.572329,"81.18,80.43"
2024-05-28_13-09-24.605006,"89.06,83.93"
2024-05-28_13-09-24.637759,"101.87,84.42"
2024-05-28_13-09-24.670461,"93.34,76.39"
2024-05-28_13-09-24.703285,"101.33,84.76"
2024-05-28_13-09-24.732091,"102.12,58.54"
2024-05-28_13-09-24.764810,"104.31,47.02"
2024-05-28_13-09-24.797522,"78.01,59.45"
2024-05-28_13-09-24.830235,"55.72,58.84"
2024-05-28_13-09-24.863046,"76.25,53.91"
2024-05-28_13-09-24.895732,"75.89,88.18"
2024-05-28_13-09-24.928434,"77.51,77.49"
2024-05-28_13-09-24.957200,"89.92,91.48"
2024-05-28_13-09-24.991636,"87.38,89.62"
2024-05-28_13-09-25.022827,"83.04,87.76"
2024-05-28_13-09-25.055571,"99.28,80.30"
2024-05-28_13-09-25.088352,"96.23,70.30"
2024-05-28_13-09-25.121046,"110.14,53.61"
2024-05-28_13-09-25.153756,"79.83,53.81"
2024-05-28_13-09-25.182440,"65.77,54.81"
2024-05-28_13-09-25.215193,"70.42,61.90"
2024-05-28_13-09-25.247993,"75.17,63.88"
2024-05-28_13-09-25.280826,"84.07,84.77"
2024-05-28_13-09-25.313553,"73.60,81.90"
2024-05-28_13-09-25.346268,"85.85,82.09"
2024-05-28_13-09-25.378986,"104.57,92.66"
2024-05-28_13-09-25.407695,"93.70,70.96"
2024-05-28_13-09-25.440468,"105.32,68.15"
2024-05-28_13-09-25.473238,"96.38,56.86"
2024-05-28_13-09-25.506057,"76.69,48.37"
2024-05-28_13-09-25.538860,"69.47,59.92"
2024-05-28_13-09-25.571524,"79.20,59.55"
2024-05-28_13-09-25.604211,"66.06,77.22"
2024-05-28_13-09-25.632949,"93.63,83.09"
2024-05-28_13-09-25.665862,"83.86,76.87"
2024-05-28_13-09-25.698494,"97.08,78.47"
2024-05-28_13-09-25.731274,"94.97,77.66"
2024-05-28_13-09-25.764018,"97.87,84.31"
2024-05-28_13-09-25.796773,"98.63,73.07"
2024-05-28_13-09-25.829738,"98.79,54.36"
2024-05-28_13-09-25.883832,"80.19,55.09"
2024-05-28_13-09-25.892740,"88.22,55.83"
2024-05-28_13-09-25.923817,"76.32,66.26"
2024-05-28_13-09-25.956561,"76.36,94.33"
2024-05-28_13-09-25.989352,"80.20,81.70"
2024-05-28_13-09-26.022078,"92.52,67.15"
2024-05-28_13-09-26.054763,"86.77,82.63"
2024-05-28_13-09-26.083515,"100.46,84.93"
2024-05-28_13-09-26.116301,"105.95,79.84"
2024-05-28_13-09-26.149073,"87.55,54.57"
2024-05-28_13-09-26.181816,"98.26,53.58"
2024-05-28_13-09-26.215563,"69.07,57.88"
2024-05-28_13-09-26.247369,"78.07,50.79"
2024-05-28_13-09-26.280049,"70.62,64.24"
2024-05-28_13-09-26.308812,"70.26,82.68"
2024-05-28_13-09-26.341560,"85.10,86.51"
2024-05-28_13-09-26.374285,"81.95,85.80"
2024-05-28_13-09-26.407069,"86.87,81.28"
2024-05-28_13-09-26.441720,"92.22,89.50"
2024-05-28_13-09-26.473600,"79.72,68.60"
2024-05-28_13-09-26.505345,"84.07,57.21"
2024-05-28_13-09-26.534215,"93.21,58.28"
2024-05-28_13-09-26.566878,"64.11,57.94"
2024-05-28_13-09-26.599569,"66.54,56.27"
2024-05-28_13-09-26.632357,"79.01,88.11"
2024-05-28_13-09-26.665124,"82.43,89.60"
2024-05-28_13-09-26.697848,"71.63,91.77"
2024-05-28_13-09-26.730514,"87.95,81.98"
2024-05-28_13-09-26.759301,"94.18,86.60"
2024-05-28_13-09-26.792066,"98.70,77.13"
2024-05-28_13-09-26.824832,"102.38,75.54"
2024-05-28_13-09-26.857573,"106.95,57.29"
2024-05-28_13-09-26.890337,"89.14,55.03"
2024-05-28_13-09-26.923085,"74.39,55.22"
2024-05-28_13-09-26.955814,"74.85,60.04"
2024-05-28_13-09-26.984518,"79.69,73.36"
2024-05-28_13-09-27.017286,"74.16,94.28"
2024-05-28_13-09-27.050055,"86.16,81.68"
2024-05-28_13-09-27.082907,"89.11,83.57"
2024-05-28_13-09-27.115577,"90.37,83.55"
2024-05-28_13-09-27.148327,"92.16,86.93"
2024-05-28_13-09-27.181057,"97.65,81.23"
2024-05-28_13-09-27.213770,"104.26,51.90"
2024-05-28_13-09-27.242576,"86.15,53.09"
2024-05-28_13-09-27.275401,"65.91,60.22"
2024-05-28_13-09-27.308150,"75.23,57.68"
2024-05-28_13-09-27.340925,"65.07,83.17"
2024-05-28_13-09-27.373689,"76.88,80.74"
2024-05-28_13-09-27.406350,"75.53,84.84"
2024-05-28_13-09-27.435127,"95.18,91.44"
2024-05-28_13-09-27.467877,"85.42,88.02"
2024-05-28_13-09-27.500673,"102.33,80.89"
2024-05-28_13-09-27.533333,"106.09,72.56"
2024-05-28_13-09-27.566129,"104.02,46.69"
2024-05-28_13-09-27.600111,"88.64,57.84"
2024-05-28_13-09-27.631593,"55.58,58.00"
2024-05-28_13-09-27.664261,"79.88,55.41"
2024-05-28_13-09-27.693132,"77.08,87.76"
2024-05-28_13-09-27.725825,"82.90,79.90"
2024-05-28_13-09-27.758607,"88.44,92.52"
2024-05-28_13-09-27.791389,"89.03,78.08"
2024-05-28_13-09-27.824142,"95.94,79.40"
2024-05-28_13-09-27.856848,"105.04,79.61"
2024-05-28_13-09-27.889543,"100.06,82.81"
2024-05-28_13-09-27.918322,"109.57,52.96"
2024-05-28_13-09-27.951084,"79.80,53.62"
2024-05-28_13-09-27.983849,"65.72,54.78"
2024-05-28_13-09-28.016673,"69.46,77.78"
2024-05-28_13-09-28.049374,"72.80,93.74"
2024-05-28_13-09-28.082193,"87.21,84.35"
2024-05-28_13-09-28.114824,"85.08,82.83"
2024-05-28_13-09-28.143631,"82.08,83.51"
2024-05-28_13-09-28.176435,"100.44,90.95"
2024-05-28_13-09-28.209165,"84.17,78.27"
2024-05-28_13-09-28.241952,"108.02,53.89"
2024-05-28_13-09-28.274726,"103.57,57.25"
2024-05-28_13-09-28.307458,"71.34,48.98"
2024-05-28_13-09-28.340030,"67.33,60.95"
2024-05-28_13-09-28.368870,"78.31,59.48"
2024-05-28_13-09-28.401720,"72.83,84.68"
2024-05-28_13-09-28.434431,"74.97,87.30"
2024-05-28_13-09-28.467201,"81.31,78.89"
2024-05-28_13-09-28.499968,"97.51,96.24"
2024-05-28_13-09-28.532901,"95.37,75.71"
2024-05-28_13-09-28.565425,"97.44,88.55"
2024-05-28_13-09-28.594238,"99.41,58.45"
2024-05-28_13-09-28.626915,"92.29,55.38"
2024-05-28_13-09-28.659706,"75.11,55.97"
2024-05-28_13-09-28.692457,"75.68,56.68"
2024-05-28_13-09-28.725188,"76.98,81.15"
2024-05-28_13-09-28.757926,"76.09,94.20"
2024-05-28_13-09-28.790632,"74.01,83.19"
2024-05-28_13-09-28.819400,"84.40,85.06"
2024-05-28_13-09-28.852236,"85.30,82.89"
2024-05-28_13-09-28.884981,"100.51,89.28"
2024-05-28_13-09-28.922480,"108.32,70.05"
2024-05-28_13-09-28.950764,"83.50,55.10"
2024-05-28_13-09-28.983159,"84.68,56.20"
2024-05-28_13-09-29.016042,"62.79,58.75"
2024-05-28_13-09-29.044653,"88.25,54.45"
2024-05-28_13-09-29.077459,"63.14,105.06"
2024-05-28_13-09-29.110197,"79.47,81.89"
2024-05-28_13-09-29.142955,"83.87,87.73"
2024-05-28_13-09-29.175755,"89.75,84.72"
2024-05-28_13-09-29.208459,"89.83,84.26"
2024-05-28_13-09-29.241137,"99.90,86.57"
2024-05-28_13-09-29.269911,"89.14,69.91"
2024-05-28_13-09-29.302626,"94.21,53.04"
2024-05-28_13-09-29.335444,"84.84,59.27"
2024-05-28_13-09-29.368384,"64.32,57.26"
2024-05-28_13-09-29.401175,"76.71,84.73"
2024-05-28_13-09-29.433790,"71.05,72.59"
2024-05-28_13-09-29.466443,"88.60,90.41"
2024-05-28_13-09-29.495147,"82.96,93.52"
2024-05-28_13-09-29.527982,"85.03,88.53"
2024-05-28_13-09-29.560713,"95.91,80.57"
2024-05-28_13-09-29.593461,"92.55,75.40"
2024-05-28_13-09-29.626213,"96.13,65.21"
2024-05-28_13-09-29.658981,"107.57,56.71"
2024-05-28_13-09-29.691762,"62.81,57.32"
2024-05-28_13-09-29.720541,"67.83,56.58"
2024-05-28_13-09-29.753234,"82.52,57.39"
2024-05-28_13-09-29.785911,"76.68,74.80"
2024-05-28_13-09-29.818662,"78.12,91.18"
2024-05-28_13-09-29.851435,"87.53,82.11"
2024-05-28_13-09-29.884267,"91.90,88.37"
2024-05-28_13-09-29.917400,"105.71,78.19"
2024-05-28_13-09-29.945702,"92.43,68.86"
2024-05-28_13-09-29.978517,"94.76,54.21"
2024-05-28_13-09-30.011392,"89.26,52.65"
2024-05-28_13-09-30.043959,"69.36,54.90"
2024-05-28_13-09-30.076733,"74.12,60.49"
2024-05-28_13-09-30.109491,"76.46,63.35"
2024-05-28_13-09-30.142181,"78.49,87.73"
2024-05-28_13-09-30.170908,"86.96,80.93"
2024-05-28_13-09-30.203764,"92.23,67.83"
2024-05-28_13-09-30.236503,"99.81,91.13"
2024-05-28_13-09-30.269225,"87.43,78.09"
2024-05-28_13-09-30.302024,"108.64,80.85"
2024-05-28_13-09-30.334787,"105.37,57.40"
2024-05-28_13-09-30.367495,"87.67,47.91"
2024-05-28_13-09-30.396184,"75.42,58.84"
2024-05-28_13-09-30.428942,"81.13,59.86"
2024-05-28_13-09-30.461705,"66.48,99.37"
2024-05-28_13-09-30.494470,"89.53,85.37"
2024-05-28_13-09-30.527262,"63.33,79.61"
2024-05-28_13-09-30.560037,"94.97,92.16"
2024-05-28_13-09-30.592756,"88.79,81.95"
2024-05-28_13-09-30.625391,"89.85,84.91"
2024-05-28_13-09-30.654160,"98.79,73.09"
2024-05-28_13-09-30.687096,"105.86,54.52"
2024-05-28_13-09-30.719939,"82.61,54.42"
2024-05-28_13-09-30.752617,"63.31,55.55"
2024-05-28_13-09-30.785304,"79.74,53.76"
2024-05-28_13-09-30.817998,"72.95,79.68"
2024-05-28_13-09-30.850667,"72.91,81.79"
2024-05-28_13-09-30.879455,"92.30,82.30"
2024-05-28_13-09-30.912222,"88.38,86.69"
2024-05-28_13-09-30.944984,"97.24,86.67"
2024-05-28_13-09-30.977751,"103.90,77.73"
2024-05-28_13-09-31.010537,"85.61,55.48"
2024-05-28_13-09-31.043210,"99.05,53.06"
2024-05-28_13-09-31.075932,"66.08,58.80"
2024-05-28_13-09-31.104768,"77.61,49.44"
2024-05-28_13-09-31.137532,"68.15,62.06"
2024-05-28_13-09-31.170283,"76.18,81.19"
2024-05-28_13-09-31.203003,"78.54,84.13"
2024-05-28_13-09-31.235854,"94.61,83.33"
2024-05-28_13-09-31.268518,"84.40,90.26"
2024-05-28_13-09-31.301266,"95.01,85.05"
2024-05-28_13-09-31.330013,"105.03,67.33"
2024-05-28_13-09-31.362737,"97.35,53.62"
2024-05-28_13-09-31.395566,"93.17,59.45"
2024-05-28_13-09-31.428295,"61.46,58.46"
2024-05-28_13-09-31.460985,"77.00,55.23"
2024-05-28_13-09-31.493778,"70.16,70.20"
2024-05-28_13-09-31.526507,"86.23,85.66"
2024-05-28_13-09-31.555314,"89.61,90.54"
2024-05-28_13-09-31.588020,"87.13,85.85"
2024-05-28_13-09-31.620784,"98.12,77.80"
2024-05-28_13-09-31.653535,"95.14,78.55"
2024-05-28_13-09-31.686283,"100.15,64.47"
2024-05-28_13-09-31.719048,"96.89,57.69"
2024-05-28_13-09-31.751744,"56.68,57.95"
2024-05-28_13-09-31.780469,"67.73,55.31"
2024-05-28_13-09-31.813278,"78.36,95.14"
2024-05-28_13-09-31.846106,"81.34,80.95"
2024-05-28_13-09-31.879062,"67.54,101.25"
2024-05-28_13-09-31.911698,"79.05,84.39"
2024-05-28_13-09-31.944334,"90.58,88.71"
2024-05-28_13-09-31.976990,"96.33,75.81"
2024-05-28_13-09-32.005815,"97.51,90.09"
2024-05-28_13-09-32.041690,"98.65,53.62"
2024-05-28_13-09-32.071446,"77.51,53.98"
2024-05-28_13-09-32.104131,"79.17,55.77"
2024-05-28_13-09-32.136933,"87.96,60.62"
2024-05-28_13-09-32.169563,"74.50,75.35"
2024-05-28_13-09-32.202270,"86.67,84.02"
2024-05-28_13-09-32.231012,"76.50,81.47"
2024-05-28_13-09-32.263844,"92.68,79.58"
2024-05-28_13-09-32.296615,"102.44,96.09"
2024-05-28_13-09-32.329321,"83.01,73.48"
2024-05-28_13-09-32.362135,"106.91,68.46"
2024-05-28_13-09-32.394981,"100.49,56.89"
2024-05-28_13-09-32.427964,"70.28,49.02"
2024-05-28_13-09-32.456340,"79.45,69.60"
2024-05-28_13-09-32.489234,"73.02,71.98"
2024-05-28_13-09-32.521870,"71.84,81.50"
2024-05-28_13-09-32.554587,"84.10,84.64"
2024-05-28_13-09-32.587363,"85.59,77.29"
2024-05-28_13-09-32.620086,"98.47,95.31"
2024-05-28_13-09-32.652809,"89.44,76.40"
2024-05-28_13-09-32.681587,"79.03,78.05"
2024-05-28_13-09-32.714331,"109.53,57.22"
2024-05-28_13-09-32.747038,"79.08,55.80"
2024-05-28_13-09-32.779887,"68.13,57.69"
2024-05-28_13-09-32.812605,"72.77,58.07"
2024-05-28_13-09-32.845475,"75.79,73.55"
2024-05-28_13-09-32.878077,"81.28,92.17"
2024-05-28_13-09-32.906915,"85.40,83.88"
2024-05-28_13-09-32.940014,"81.97,83.19"
2024-05-28_13-09-32.972540,"88.40,83.51"
2024-05-28_13-09-33.005220,"92.70,81.26"
2024-05-28_13-09-33.037933,"94.39,56.59"
2024-05-28_13-09-33.070855,"96.29,54.83"
2024-05-28_13-09-33.103453,"82.95,53.65"
2024-05-28_13-09-33.136116,"78.06,55.37"
2024-05-28_13-09-33.164910,"78.84,80.43"
2024-05-28_13-09-33.197644,"70.30,95.22"
2024-05-28_13-09-33.230405,"70.00,82.83"
2024-05-28_13-09-33.263210,"81.02,87.62"
2024-05-28_13-09-33.295964,"76.93,92.24"
2024-05-28_13-09-33.328634,"88.90,86.84"
2024-05-28_13-09-33.361323,"85.08,81.10"
2024-05-28_13-09-33.390190,"86.24,52.30"
2024-05-28_13-09-33.422944,"85.23,54.30"
2024-05-28_13-09-33.455687,"72.37,58.47"
2024-05-28_13-09-33.488433,"87.98,57.43"
2024-05-28_13-09-33.521204,"64.86,94.75"
2024-05-28_13-09-33.554025,"79.29,80.58"
2024-05-28_13-09-33.586812,"75.86,84.58"
2024-05-28_13-09-33.615498,"98.77,89.17"
2024-05-28_13-09-33.648169,"86.01,82.00"
2024-05-28_13-09-33.680943,"96.88,83.75"
2024-05-28_13-09-33.713691,"99.10,58.79"
2024-05-28_13-09-33.746749,"102.29,47.60"
2024-05-28_13-09-33.779171,"80.30,59.80"
2024-05-28_13-09-33.811810,"59.63,57.36"
2024-05-28_13-09-33.840645,"75.49,55.86"
2024-05-28_13-09-33.873511,"76.08,88.48"
2024-05-28_13-09-33.906201,"77.67,78.62"
2024-05-28_13-09-33.938924,"86.87,93.01"
2024-05-28_13-09-33.971726,"89.04,79.71"
2024-05-28_13-09-34.004421,"99.11,78.11"
2024-05-28_13-09-34.037094,"96.05,79.86"
2024-05-28_13-09-34.065890,"103.51,69.87"
2024-05-28_13-09-34.098781,"92.63,53.13"
2024-05-28_13-09-34.131641,"67.60,54.38"
2024-05-28_13-09-34.164221,"83.70,52.12"
2024-05-28_13-09-34.196994,"69.97,82.09"
2024-05-28_13-09-34.229664,"85.26,80.87"
2024-05-28_13-09-34.262384,"92.55,81.64"
2024-05-28_13-09-34.291129,"88.12,87.38"
2024-05-28_13-09-34.323917,"97.27,83.58"
2024-05-28_13-09-34.356712,"112.77,88.39"
2024-05-28_13-09-34.389482,"96.99,55.32"
2024-05-28_13-09-34.422232,"101.04,52.77"
2024-05-28_13-09-34.454930,"65.24,58.99"
2024-05-28_13-09-34.487621,"77.63,51.63"
2024-05-28_13-09-34.516508,"68.47,70.59"
2024-05-28_13-09-34.549271,"76.62,82.78"
2024-05-28_13-09-34.582012,"84.59,87.11"
2024-05-28_13-09-34.614707,"96.70,83.33"
2024-05-28_13-09-34.647485,"90.96,88.46"
2024-05-28_13-09-34.680190,"97.61,83.32"
2024-05-28_13-09-34.712899,"97.54,66.97"
2024-05-28_13-09-34.741702,"97.01,52.63"
2024-05-28_13-09-34.774468,"82.59,59.49"
2024-05-28_13-09-34.807265,"65.07,57.43"
2024-05-28_13-09-34.840164,"78.48,53.84"
2024-05-28_13-09-34.872787,"70.94,62.45"
2024-05-28_13-09-34.905762,"78.44,87.87"
2024-05-28_13-09-34.938226,"70.23,99.26"
2024-05-28_13-09-34.966987,"81.56,88.03"
2024-05-28_13-09-34.999850,"98.32,78.98"
2024-05-28_13-09-35.032626,"96.13,78.27"
2024-05-28_13-09-35.065236,"98.41,65.50"
2024-05-28_13-09-35.098149,"102.93,58.09"
2024-05-28_13-09-35.130756,"59.39,58.12"
2024-05-28_13-09-35.163687,"71.53,53.32"
2024-05-28_13-09-35.192206,"78.31,76.60"
2024-05-28_13-09-35.224970,"80.79,81.69"
2024-05-28_13-09-35.257727,"86.77,93.03"
2024-05-28_13-09-35.290485,"85.77,67.86"
2024-05-28_13-09-35.323214,"92.63,82.54"
2024-05-28_13-09-35.356168,"103.29,79.09"
2024-05-28_13-09-35.388738,"97.55,70.16"
2024-05-28_13-09-35.417445,"104.15,54.27"
2024-05-28_13-09-35.450181,"72.92,54.34"
2024-05-28_13-09-35.482989,"65.97,56.63"
2024-05-28_13-09-35.515754,"79.24,58.97"
